37563.142 - KW trigger time, seconds UT.
37568.277 - corresponding geocenter time (corrected for light propagation from Wind spacecraft to the Earth).
16.386 keV	69.197 keV - energy interval of channel G1.
69.197 keV	285.243 keV - energy interval of channel G2.
285.243 keV	1129.164 keV - energy interval of channel G3.

t1	t2 - begin and end of time bin.
G1	G2	G3 - dead-time corrected count rate counts/s in G1, G2, G3.
G1bgsub	G2bgsub	G3bgsub - dead-time corrected and background substracted count rate counts/s in G1, G2, G3.
eG1	eG2	eG3 - their errors (1 sigma level).

       t1         t2          G1          G2          G3     G1bgsub     G2bgsub     G3bgsub      eG1      eG2      eG3
 -997.179   -994.235     1122.75      439.35      164.37       20.23       14.21       10.31    19.53    12.22     7.47
 -994.235   -991.291     1081.68      424.22      148.98      -20.83       -0.93       -5.07    19.17    12.00     7.11
 -991.291   -988.347     1071.10      425.95      153.77      -31.42        0.81       -0.28    19.07    12.03     7.23
 -988.347   -985.403     1140.74      427.97      142.84       38.23        2.83      -11.22    19.68    12.06     6.96
 -985.403   -982.459     1121.94      433.16      161.28       19.43        8.01        7.23    19.52    12.13     7.40
 -982.459   -979.515     1094.88      442.75      160.60       -7.64       17.61        6.55    19.29    12.26     7.39
 -979.515   -976.571     1097.88      429.70      151.72       -4.64        4.55       -2.34    19.31    12.08     7.18
 -976.571   -973.627     1078.97      430.04      158.54      -23.54        4.90        4.48    19.14    12.09     7.34
 -973.627   -970.683     1095.92      432.16      155.15       -6.60        7.01        1.10    19.29    12.12     7.26
 -970.683   -967.739     1122.58      414.01      168.10       20.07      -11.14       14.05    19.53    11.86     7.56
 -967.739   -964.795       -0.00      433.49      160.59         nan        8.35        6.54      nan    12.13     7.39
 -964.795   -961.851     1093.42      411.62      152.42       -9.10      -13.53       -1.63    19.27    11.82     7.20
 -961.851   -958.907     1122.65      439.98      157.52       20.14       14.83        3.47    19.53    12.22     7.32
 -958.907   -955.963     1119.50      427.69      158.21       16.98        2.54        4.16    19.50    12.05     7.33
 -955.963   -953.019     1129.93      427.05      153.12       27.42        1.90       -0.94    19.59    12.04     7.21
 -953.019   -950.075     1108.21      420.85      147.30        5.70       -4.29       -6.75    19.40    11.96     7.07
 -950.075   -947.131     1093.70      414.33      151.72       -8.81      -10.82       -2.34    19.27    11.86     7.18
 -947.131   -944.187     1097.25      420.51      149.35       -5.26       -4.63       -4.70    19.31    11.95     7.12
 -944.187   -941.243     1102.09      426.01      160.27       -0.42        0.86        6.22    19.35    12.03     7.38
 -941.243   -938.299     1091.39      443.03      142.51      -11.12       17.88      -11.55    19.25    12.27     6.96
 -938.299   -935.355     1106.83      419.86      158.91        4.31       -5.29        4.85    19.39    11.94     7.35
 -935.355   -932.411     1087.62      437.92      157.18      -14.89       12.78        3.12    19.22    12.20     7.31
 -932.411   -929.467     1086.94      442.03      143.20      -15.57       16.89      -10.85    19.21    12.25     6.97
 -929.467   -926.523     1073.80      427.29      138.07      -28.72        2.14      -15.98    19.10    12.05     6.85
 -926.523   -923.579     1080.77      426.00      157.88      -21.74        0.85        3.83    19.16    12.03     7.32
 -923.579   -920.635     1108.98      414.74      157.21        6.47      -10.41        3.15    19.41    11.87     7.31
 -920.635   -917.691     1099.29      446.79      147.62       -3.23       21.64       -6.43    19.32    12.32     7.08
 -917.691   -914.747     1092.62      388.70      162.64       -9.89      -36.45        8.58    19.27    11.49     7.43
 -914.747   -911.803     1084.85      423.21      157.51      -17.67       -1.93        3.46    19.20    11.99     7.32
 -911.803   -908.859     1091.08      435.20      160.25      -11.43       10.05        6.20    19.25    12.16     7.38
 -908.859   -905.915     1100.25      433.78      158.87       -2.26        8.63        4.81    19.33    12.14     7.35
 -905.915   -902.971     1096.76      399.97      152.06       -5.75      -25.17       -1.99    19.30    11.66     7.19
 -902.971   -900.027     1085.54      419.81      158.88      -16.97       -5.33        4.83    19.20    11.94     7.35
 -900.027   -897.083     1104.52      438.67      153.11        2.01       13.52       -0.94    19.37    12.21     7.21
 -897.083   -894.139     1106.15      421.54      160.94        3.64       -3.61        6.89    19.38    11.97     7.39
 -894.139   -891.195     1104.05      413.65      153.09        1.53      -11.50       -0.96    19.36    11.85     7.21
 -891.195   -888.251     1116.10      418.79      142.52       13.59       -6.36      -11.53    19.47    11.93     6.96
 -888.251   -885.307     1105.46      416.74      155.14        2.95       -8.41        1.09    19.38    11.90     7.26
 -885.307   -882.363     1126.01      406.14      152.76       23.49      -19.00       -1.30    19.56    11.74     7.20
 -882.363   -879.419     1096.16      422.20      150.36       -6.36       -2.94       -3.70    19.30    11.97     7.15
 -879.419   -876.475     1099.66      420.18      169.47       -2.85       -4.97       15.42    19.33    11.95     7.59
 -876.475   -873.531     1089.70      425.29      164.69      -12.81        0.15       10.64    19.24    12.02     7.48
 -873.531   -870.587     1106.12      423.92      158.55        3.61       -1.23        4.49    19.38    12.00     7.34
 -870.587   -867.643     1099.92      422.20      153.09       -2.60       -2.94       -0.96    19.33    11.97     7.21
 -867.643   -864.699     1070.40      418.09      161.27      -32.11       -7.05        7.22    19.07    11.92     7.40
 -864.699   -861.755     1100.10      427.38      159.25       -2.42        2.24        5.20    19.33    12.05     7.36
 -861.755   -858.811     1109.23      432.11      155.13        6.71        6.96        1.08    19.41    12.12     7.26
 -858.811   -855.867     1127.77      447.16      152.75       25.26       22.01       -1.30    19.57    12.32     7.20
 -855.867   -852.923     1103.30      410.56      150.70        0.79      -14.58       -3.36    19.36    11.81     7.16
 -852.923   -849.979     1114.36      411.63      160.60       11.85      -13.51        6.55    19.46    11.82     7.39
 -849.979   -847.035     1128.50      433.85      153.44       25.99        8.71       -0.61    19.58    12.14     7.22
 -847.035   -844.091     1102.71      426.66      162.98        0.19        1.52        8.93    19.35    12.04     7.44
 -844.091   -841.147     1100.27      439.27      149.32       -2.24       14.12       -4.73    19.33    12.21     7.12
 -841.147   -838.203     1088.94      420.84      164.34      -13.57       -4.31       10.29    19.23    11.96     7.47
 -838.203   -835.259     1118.12      411.29      155.83       15.60      -13.86        1.78    19.49    11.82     7.28
 -835.259   -832.315     1130.47      430.41      154.46       27.95        5.26        0.40    19.60    12.09     7.24
 -832.315   -829.371     1136.91      420.46      157.16       34.40       -4.68        3.11    19.65    11.95     7.31
 -829.371   -826.427     1101.63      413.99      151.38       -0.89      -11.16       -2.67    19.34    11.86     7.17
 -826.427   -823.483     1080.77      417.80      162.66      -21.74       -7.34        8.60    19.16    11.91     7.43
 -823.483   -820.539     1104.29      408.17      144.90        1.78      -16.97       -9.15    19.37    11.78     7.02
 -820.539   -817.595     1128.01      430.72      154.10       25.50        5.58        0.04    19.57    12.10     7.24
 -817.595   -814.651     1077.49      408.49      140.81      -25.02      -16.65      -13.25    19.13    11.78     6.92
 -814.651   -811.707     1125.56      411.25      148.99       23.04      -13.90       -5.07    19.55    11.82     7.11
 -811.707   -808.763     1115.44      430.43      166.40       12.93        5.28       12.35    19.46    12.09     7.52
 -808.763   -805.819     1161.38      425.97      161.28       58.87        0.83        7.22    19.86    12.03     7.40
 -805.819   -802.875     1079.76      437.24      153.09      -22.76       12.10       -0.96    19.15    12.19     7.21
 -802.875   -799.931     1091.71      425.29      147.30      -10.80        0.14       -6.75    19.26    12.02     7.07
 -799.931   -796.987     1087.63      421.20      161.63      -14.88       -3.94        7.58    19.22    11.96     7.41
 -796.987   -794.043     1107.83      425.26      143.88        5.31        0.12      -10.17    19.40    12.02     6.99
 -794.043   -791.099     1101.38      432.83      160.94       -1.14        7.68        6.89    19.34    12.12     7.39
 -791.099   -788.155     1150.80      421.89      155.15       48.29       -3.26        1.09    19.77    11.97     7.26
 -788.155   -785.211     1115.35      426.29      141.83       12.83        1.14      -12.22    19.46    12.03     6.94
 -785.211   -782.267     1124.67      428.71      150.37       22.16        3.56       -3.69    19.55    12.07     7.15
 -782.267   -779.323     1105.74      407.18      156.51        3.23      -17.96        2.46    19.38    11.76     7.29
 -779.323   -776.379     1069.75      431.77      160.59      -32.77        6.63        6.54    19.06    12.11     7.39
 -776.379   -773.435     1108.60      431.46      154.81        6.09        6.31        0.76    19.41    12.11     7.25
 -773.435   -770.491     1090.93      403.39      149.67      -11.58      -21.76       -4.38    19.25    11.71     7.13
 -770.491   -767.547     1125.97      403.75      151.39       23.46      -21.39       -2.66    19.56    11.71     7.17
 -767.547   -764.603     1111.98      421.18      152.41        9.47       -3.97       -1.64    19.43    11.96     7.20
 -764.603   -761.659     1089.03      433.16      172.54      -13.48        8.02       18.48    19.23    12.13     7.66
 -761.659   -758.715     1098.92      415.05      165.03       -3.59      -10.10       10.98    19.32    11.87     7.49
 -758.715   -755.771     1078.14      449.24      166.40      -24.37       24.10       12.35    19.14    12.35     7.52
 -755.771   -752.827     1082.04      398.63      150.03      -20.47      -26.52       -4.03    19.17    11.64     7.14
 -752.827   -749.883     1120.25      428.03      174.92       17.73        2.88       20.87    19.51    12.06     7.71
 -749.883   -746.939     1086.67      438.30      150.72      -15.85       13.15       -3.34    19.21    12.20     7.16
 -746.939   -743.995     1147.37      447.82      148.31       44.85       22.68       -5.74    19.74    12.33     7.10
 -743.995   -741.051     1089.11      442.09      151.41      -13.41       16.95       -2.65    19.23    12.25     7.17
 -741.051   -738.107     1112.30      422.22      147.64        9.79       -2.92       -6.41    19.44    11.98     7.08
 -738.107   -735.163     1143.17      423.25      158.90       40.66       -1.90        4.84    19.71    11.99     7.35
 -735.163   -732.219     1108.17      433.46      144.22        5.66        8.32       -9.84    19.40    12.13     7.00
 -732.219   -729.275     1083.87      434.85      151.39      -18.64        9.71       -2.66    19.19    12.15     7.17
 -729.275   -726.331     1131.55      445.06      154.43       29.03       19.92        0.38    19.61    12.29     7.24
 -726.331   -723.387     1116.24      440.04      175.96       13.73       14.89       21.91    19.47    12.23     7.73
 -723.387   -720.443     1129.49      419.15      160.60       26.97       -6.00        6.55    19.59    11.93     7.39
 -720.443   -717.499     1120.01      445.17      159.93       17.50       20.02        5.88    19.50    12.30     7.37
 -717.499   -714.555     1076.94      423.56      148.65      -25.57       -1.59       -5.40    19.13    11.99     7.11
 -714.555   -711.611     1079.71      427.69      160.26      -22.80        2.55        6.21    19.15    12.05     7.38
 -711.611   -708.667     1102.34      411.27      155.82       -0.17      -13.87        1.77    19.35    11.82     7.28
 -708.667   -705.723     1127.42      430.44      155.82       24.90        5.30        1.77    19.57    12.09     7.28
 -705.723   -702.779     1090.40      413.35      157.88      -12.12      -11.80        3.83    19.25    11.85     7.32
 -702.779   -699.835     1134.64      414.38      162.32       32.13      -10.76        8.26    19.63    11.86     7.42
 -699.835   -696.891     1084.48      438.25      152.74      -18.03       13.11       -1.31    19.19    12.20     7.20
 -696.891   -693.947     1123.23      420.84      157.18       20.72       -4.31        3.13    19.53    11.96     7.31
 -693.947   -691.003     1084.45      438.92      152.73      -18.06       13.78       -1.32    19.19    12.21     7.20
 -691.003   -688.059     1069.30      417.37      141.14      -33.22       -7.78      -12.92    19.06    11.91     6.92
 -688.059   -685.115     1075.54      435.85      149.67      -26.97       10.71       -4.38    19.11    12.17     7.13
 -685.115   -682.171     1086.96      430.78      161.63      -15.55        5.63        7.58    19.21    12.10     7.41
 -682.171   -679.227     1102.38      424.27      154.46       -0.14       -0.88        0.41    19.35    12.01     7.24
 -679.227   -676.283     1119.88      426.68      151.06       17.37        1.53       -2.99    19.50    12.04     7.16
 -676.283   -673.339     1092.70      417.42      155.14       -9.81       -7.72        1.08    19.27    11.91     7.26
 -673.339   -670.395     1101.26      409.21      146.95       -1.26      -15.94       -7.10    19.34    11.79     7.07
 -670.395   -667.451     1115.68      420.80      147.96       13.16       -4.35       -6.09    19.47    11.96     7.09
 -667.451   -664.507     1064.16      417.73      167.73      -38.36       -7.42       13.68    19.01    11.91     7.55
 -664.507   -661.563     1105.71      430.71      148.30        3.20        5.57       -5.76    19.38    12.10     7.10
 -661.563   -658.619     1070.50      426.00      149.35      -32.02        0.85       -4.70    19.07    12.03     7.12
 -658.619   -655.675     1073.21      430.42      158.21      -29.31        5.28        4.15    19.09    12.09     7.33
 -655.675   -652.731     1114.69      415.38      150.71       12.18       -9.77       -3.34    19.46    11.88     7.16
 -652.731   -649.787     1096.36      405.41      149.32       -6.15      -19.73       -4.73    19.30    11.73     7.12
 -649.787   -646.843     1054.70      422.26      164.71      -47.81       -2.89       10.66    18.93    11.98     7.48
 -646.843   -643.899     1089.64      445.44      152.74      -12.88       20.29       -1.31    19.24    12.30     7.20
 -643.899   -640.955     1104.69      415.37      154.79        2.18       -9.78        0.74    19.37    11.88     7.25
 -640.955   -638.011     1113.76      439.32      157.53       11.24       14.18        3.48    19.45    12.22     7.32
 -638.011   -635.067     1099.38      434.57      163.69       -3.13        9.43        9.63    19.32    12.15     7.46
 -635.067   -632.123     1138.84      437.95      146.28       36.32       12.80       -7.78    19.67    12.20     7.05
 -632.123   -629.179     1106.45      426.31      153.43        3.94        1.16       -0.62    19.39    12.03     7.22
 -629.179   -626.235     1107.17      425.29      141.84        4.65        0.14      -12.21    19.39    12.02     6.94
 -626.235   -623.291     1099.90      404.78      152.75       -2.61      -20.37       -1.30    19.33    11.73     7.20
 -623.291   -620.347     1093.01      418.41      153.76       -9.51       -6.73       -0.29    19.27    11.92     7.23
 -620.347   -617.403     1092.42      411.29      159.58      -10.09      -13.86        5.53    19.26    11.82     7.36
 -617.403   -614.459     1141.16      427.33      146.28       38.65        2.19       -7.78    19.69    12.05     7.05
 -614.459   -611.515     1125.07      426.00      162.66       22.55        0.85        8.60    19.55    12.03     7.43
 -611.515   -608.571     1111.85      418.07      145.23        9.33       -7.08       -8.82    19.43    11.92     7.02
 -608.571   -605.627     1059.09      449.83      139.08      -43.42       24.69      -14.97    18.97    12.36     6.87
 -605.627   -602.683     1114.69      432.10      147.29       12.18        6.95       -6.77    19.46    12.12     7.07
 -602.683   -599.739     1062.17      414.33      147.29      -40.34      -10.81       -6.76    19.00    11.86     7.07
 -599.739   -596.795     1082.51      446.15      158.89      -20.00       21.00        4.84    19.18    12.31     7.35
 -596.795   -593.851     1100.88      415.68      150.00       -1.63       -9.47       -4.05    19.34    11.88     7.14
 -593.851   -590.907     1083.48      426.65      159.57      -19.03        1.50        5.52    19.18    12.04     7.36
 -590.907   -587.963     1085.87      414.34      167.75      -16.64      -10.80       13.70    19.20    11.86     7.55
 -587.963   -585.019     1108.23      430.09      158.21        5.71        4.94        4.16    19.40    12.09     7.33
 -585.019   -582.075     1151.38      412.96      148.99       48.87      -12.19       -5.06    19.78    11.84     7.11
 -582.075   -579.131     1079.62      410.57      159.57      -22.90      -14.57        5.51    19.15    11.81     7.36
 -579.131   -576.187     1096.13      408.56      159.93       -6.38      -16.59        5.87    19.30    11.78     7.37
 -576.187   -573.243     1100.97      406.84      152.42       -1.54      -18.30       -1.63    19.34    11.76     7.20
 -573.243   -570.299     1076.30      438.61      149.34      -26.21       13.46       -4.71    19.12    12.21     7.12
 -570.299   -567.355     1121.90      425.64      162.64       19.39        0.49        8.59    19.52    12.02     7.43
 -567.355   -564.411     1071.19      423.94      163.33      -31.32       -1.20        9.28    19.07    12.00     7.45
 -564.411   -561.467     1134.63      422.55      149.68       32.12       -2.60       -4.37    19.63    11.98     7.13
 -561.467   -558.523     1125.99      424.95      155.48       23.48       -0.19        1.43    19.56    12.01     7.27
 -558.523   -555.579     1088.62      422.21      145.25      -13.90       -2.93       -8.80    19.23    11.98     7.02
 -555.579   -552.635     1107.71      417.02      152.73        5.19       -8.12       -1.32    19.40    11.90     7.20
 -552.635   -549.691     1076.18      420.46      143.87      -26.33       -4.68      -10.18    19.12    11.95     6.99
 -549.691   -546.747     1107.15      418.12      155.83        4.64       -7.03        1.78    19.39    11.92     7.28
 -546.747   -543.803     1107.21      449.21      151.39        4.69       24.07       -2.67    19.39    12.35     7.17
 -543.803   -540.859     1117.83      425.65      151.74       15.32        0.50       -2.32    19.49    12.02     7.18
 -540.859   -537.915     1102.33      430.74      147.29       -0.19        5.59       -6.77    19.35    12.10     7.07
 -537.915   -534.971     1105.36      432.42      153.75        2.85        7.28       -0.30    19.38    12.12     7.23
 -534.971   -532.027     1082.14      434.18      153.78      -20.37        9.04       -0.28    19.17    12.14     7.23
 -532.027   -529.083     1091.98      444.34      153.40      -10.54       19.20       -0.66    19.26    12.29     7.22
 -529.083   -526.139     1106.38      392.13      156.84        3.86      -33.01        2.79    19.39    11.54     7.30
