69086.307 - KW trigger time, seconds UT.
69085.530 - corresponding geocenter time (corrected for light propagation from Wind spacecraft to the Earth).
14.900 keV	62.921 keV - energy interval of channel G1.
62.921 keV	260.548 keV - energy interval of channel G2.
260.548 keV	1065.549 keV - energy interval of channel G3.

t1	t2 - begin and end of time bin.
G1	G2	G3 - dead-time corrected count rate counts/s in G1, G2, G3.
G1bgsub	G2bgsub	G3bgsub - dead-time corrected and background substracted count rate counts/s in G1, G2, G3.
eG1	eG2	eG3 - their errors (1 sigma level).

       t1         t2          G1          G2          G3     G1bgsub     G2bgsub     G3bgsub      eG1      eG2      eG3
 -999.322   -996.378     1071.64      457.13      181.38        0.62       -0.69       -0.30    19.08    12.46     7.85
 -996.378   -993.434     1056.24      439.69      195.03      -14.78      -18.12       13.35    18.94    12.22     8.14
 -993.434   -990.490     1068.89      465.96      175.90       -2.13        8.14       -5.78    19.05    12.58     7.73
 -990.490   -987.546     1090.81      450.95      182.40       19.79       -6.87        0.71    19.25    12.38     7.87
 -987.546   -984.602     1106.58      461.18      172.50       35.55        3.37       -9.19    19.39    12.52     7.66
 -984.602   -981.658     1087.03      428.74      189.91       16.01      -29.07        8.22    19.22    12.07     8.03
 -981.658   -978.714     1084.69      455.06      194.68       13.67       -2.75       13.00    19.20    12.43     8.13
 -978.714   -975.770     1062.38      475.24      186.15       -8.64       17.43        4.47    19.00    12.71     7.95
 -975.770   -972.826     1076.39      458.10      179.99        5.37        0.29       -1.69    19.12    12.47     7.82
 -972.826   -969.882     1089.01      452.27      174.19       17.99       -5.54       -7.49    19.23    12.39     7.69
 -969.882   -966.938       -0.00      455.73      185.11         nan       -2.09        3.43      nan    12.44     7.93
 -966.938   -963.994     1057.88      450.96      187.85      -13.14       -6.85        6.17    18.96    12.38     7.99
 -963.994   -961.050     1086.76      459.85      193.31       15.74        2.04       11.63    19.21    12.50     8.10
 -961.050   -958.106     1056.56      448.57      187.86      -14.47       -9.24        6.18    18.94    12.34     7.99
 -958.106   -955.162     1087.30      439.28      180.67       16.28      -18.53       -1.01    19.22    12.21     7.83
 -955.162   -952.218     1046.99      470.78      179.67      -24.03       12.97       -2.01    18.86    12.65     7.81
 -952.218   -949.274     1060.27      446.84      183.42      -10.75      -10.97        1.74    18.98    12.32     7.89
 -949.274   -946.330     1084.73      467.72      187.18       13.71        9.90        5.50    19.20    12.60     7.97
 -946.330   -943.386     1096.39      448.57      181.39       25.37       -9.24       -0.30    19.30    12.34     7.85
 -943.386   -940.442     1035.99      474.89      177.96      -35.03       17.07       -3.72    18.76    12.70     7.78
 -940.442   -937.498     1048.67      477.61      175.57      -22.35       19.80       -6.11    18.87    12.74     7.72
 -937.498   -934.554     1056.54      473.50      185.79      -14.48       15.68        4.11    18.94    12.68     7.94
 -934.554   -931.610     1084.25      455.04      179.32       13.23       -2.77       -2.36    19.19    12.43     7.80
 -931.610   -928.666     1081.51      464.92      177.26       10.49        7.11       -4.42    19.17    12.57     7.76
 -928.666   -925.722     1075.69      435.88      176.93        4.67      -21.93       -4.75    19.11    12.17     7.75
 -925.722   -922.778     1068.77      436.90      190.91       -2.25      -20.91        9.23    19.05    12.18     8.05
 -922.778   -919.834     1044.49      479.29      179.31      -26.53       21.48       -2.37    18.84    12.76     7.80
 -919.834   -916.890     1086.77      467.03      186.49       15.75        9.21        4.81    19.21    12.60     7.96
 -916.890   -913.946     1071.23      440.36      189.56        0.20      -17.46        7.88    19.07    12.23     8.02
 -913.946   -911.002     1099.73      467.97      182.37       28.71       10.16        0.69    19.33    12.61     7.87
 -911.002   -908.058     1066.46      459.82      182.73       -4.56        2.01        1.05    19.03    12.50     7.88
 -908.058   -905.114     1091.82      446.14      172.50       20.80      -11.67       -9.18    19.26    12.31     7.66
 -905.114   -902.170     1063.34      445.81      171.82       -7.68      -12.00       -9.86    19.00    12.31     7.64
 -902.170   -899.226     1063.55      491.33      180.02       -7.47       33.52       -1.66    19.01    12.92     7.82
 -899.226   -896.282     1116.66      464.98      186.49       45.63        7.17        4.81    19.48    12.57     7.96
 -896.282   -893.338     1090.58      456.46      192.65       19.56       -1.35       10.97    19.25    12.45     8.09
 -893.338   -890.394     1079.20      462.26      190.59        8.18        4.45        8.91    19.15    12.53     8.05
 -890.394   -887.450     1080.08      461.46      180.98        9.06        3.65       -0.70    19.15    12.52     7.84
 -887.450   -884.506     1082.34      449.27      173.89       11.32       -8.54       -7.79    19.17    12.35     7.69
 -884.506   -881.562     1084.61      448.52      182.38       13.58       -9.29        0.70    19.19    12.34     7.87
 -881.562   -878.618     1112.51      463.95      177.96       41.48        6.14       -3.72    19.44    12.55     7.78
 -878.618   -875.674     1122.07      459.83      181.02       51.05        2.01       -0.66    19.52    12.50     7.84
 -875.674   -872.730     1070.95      438.65      187.18       -0.07      -19.16        5.50    19.07    12.21     7.97
 -872.730   -869.786     1069.61      447.55      177.63       -1.42      -10.27       -4.05    19.06    12.33     7.77
 -869.786   -866.842     1072.26      451.24      178.62        1.24       -6.57       -3.06    19.09    12.38     7.79
 -866.842   -863.898     1059.88      460.47      168.39      -11.14        2.66      -13.29    18.97    12.51     7.56
 -863.898   -860.954     1065.73      448.19      183.41       -5.29       -9.63        1.73    19.03    12.34     7.89
 -860.954   -858.010     1082.61      461.56      192.97       11.59        3.75       11.28    19.18    12.52     8.10
 -858.010   -855.066     1085.40      468.37      190.57       14.38       10.55        8.89    19.20    12.61     8.05
 -855.066   -852.122     1086.95      425.27      174.20       15.93      -32.54       -7.48    19.21    12.02     7.69
 -852.122   -849.178     1099.38      460.51      176.59       28.36        2.69       -5.09    19.32    12.51     7.75
 -849.178   -846.234     1097.02      448.23      177.63       25.99       -9.58       -4.05    19.30    12.34     7.77
 -846.234   -843.290     1081.85      475.87      173.84       10.83       18.05       -7.84    19.17    12.71     7.68
 -843.290   -840.346     1077.09      477.91      163.28        6.06       20.10      -18.40    19.13    12.74     7.45
 -840.346   -837.402     1061.94      456.72      185.44       -9.09       -1.10        3.76    18.99    12.46     7.94
 -837.402   -834.458     1069.13      446.47      178.97       -1.89      -11.34       -2.71    19.06    12.31     7.80
 -834.458   -831.514     1043.83      462.90      187.84      -27.19        5.09        6.16    18.83    12.54     7.99
 -831.514   -828.570     1071.63      449.27      194.69        0.61       -8.54       13.01    19.08    12.35     8.13
 -828.570   -825.626     1066.63      464.69      193.33       -4.39        6.87       11.65    19.03    12.56     8.10
 -825.626   -822.682       -0.00      463.61      189.57         nan        5.79        7.88      nan    12.55     8.02
 -822.682   -819.738     1053.13      469.40      184.78      -17.89       11.59        3.10    18.91    12.63     7.92
 -819.738   -816.794     1080.47      441.70      181.71        9.45      -16.11        0.02    19.16    12.25     7.86
 -816.794   -813.850     1061.86      461.78      165.98       -9.16        3.97      -15.70    18.99    12.52     7.51
 -813.850   -810.906     1031.06      428.06      175.58      -39.97      -29.75       -6.10    18.71    12.06     7.72
 -810.906   -807.962     1047.61      457.09      191.94      -23.42       -0.72       10.26    18.86    12.46     8.07
 -807.962   -805.018     1059.70      466.05      194.69      -11.32        8.23       13.01    18.97    12.58     8.13
 -805.018   -802.074     1092.87      442.39      169.78       21.84      -15.42      -11.90    19.27    12.26     7.59
 -802.074   -799.130     1066.04      450.23      189.20       -4.98       -7.58        7.51    19.03    12.37     8.02
 -799.130   -796.186     1093.84      448.51      174.54       22.82       -9.30       -7.15    19.28    12.34     7.70
 -796.186   -793.242     1056.60      466.37      183.77      -14.43        8.56        2.09    18.95    12.59     7.90
 -793.242   -790.298     1071.28      440.02      185.81        0.26      -17.80        4.13    19.08    12.22     7.95
 -790.298   -787.354     1060.99      478.95      177.26      -10.03       21.14       -4.42    18.98    12.76     7.76
 -787.354   -784.410     1055.89      481.03      182.39      -15.13       23.22        0.70    18.94    12.78     7.87
 -784.410   -781.466     1040.14      462.62      184.81      -30.88        4.81        3.13    18.80    12.54     7.92
 -781.466   -778.522     1074.71      468.00      169.76        3.69       10.19      -11.92    19.11    12.61     7.59
 -778.522   -775.578     1042.65      467.48      202.23      -28.37        9.66       20.54    18.82    12.60     8.29
 -775.578   -772.634     1074.46      477.28      192.97        3.43       19.47       11.29    19.10    12.73     8.10
 -772.634   -769.690     1069.97      496.04      176.57       -1.06       38.22       -5.11    19.06    12.98     7.75
 -769.690   -766.746     1089.51      466.34      169.44       18.49        8.53      -12.24    19.24    12.59     7.59
 -766.746   -763.802     1034.65      459.18      207.64      -36.37        1.37       25.95    18.75    12.49     8.40
 -763.802   -760.858     1071.00      482.06      185.12       -0.02       24.25        3.43    19.07    12.80     7.93
 -760.858   -757.914     1054.76      450.58      176.59      -16.26       -7.24       -5.09    18.93    12.37     7.75
 -757.914   -754.970     1024.93      452.29      172.16      -46.09       -5.52       -9.52    18.66    12.39     7.65
 -754.970   -752.026     1054.87      461.58      193.33      -16.16        3.77       11.64    18.93    12.52     8.10
 -752.026   -749.082     1053.13      442.46      190.95      -17.89      -15.35        9.27    18.91    12.26     8.05
 -749.082   -746.138     1079.80      447.86      188.53        8.77       -9.95        6.84    19.15    12.33     8.00
 -746.138   -743.194     1065.69      458.07      171.80       -5.33        0.26       -9.88    19.03    12.47     7.64
 -743.194   -740.250     1105.85      439.28      167.03       34.83      -18.54      -14.65    19.38    12.21     7.53
 -740.250   -737.306     1035.96      485.11      181.36      -35.06       27.30       -0.32    18.76    12.84     7.85
 -737.306   -734.362     1063.01      450.93      180.00       -8.01       -6.88       -1.69    19.00    12.38     7.82
 -734.362   -731.418     1090.82      468.36      177.60       19.80       10.55       -4.08    19.25    12.61     7.77
 -731.418   -728.474     1071.64      463.94      183.75        0.61        6.12        2.07    19.08    12.55     7.90
 -728.474   -725.530     1078.14      454.01      181.37        7.12       -3.80       -0.31    19.14    12.42     7.85
 -725.530   -722.586     1086.99      446.82      166.02       15.97      -10.99      -15.66    19.21    12.32     7.51
 -722.586   -719.642     1059.21      455.03      190.22      -11.81       -2.79        8.54    18.97    12.43     8.04
 -719.642   -716.698     1086.05      467.00      179.32       15.03        9.19       -2.36    19.21    12.60     7.80
 -716.698   -713.754     1069.59      463.27      180.70       -1.44        5.46       -0.98    19.06    12.54     7.83
 -713.754   -710.810     1075.77      472.81      181.70        4.75       15.00        0.02    19.12    12.67     7.86
 -710.810   -707.866     1075.66      445.45      175.91        4.64      -12.36       -5.77    19.11    12.30     7.73
 -707.866   -704.922     1083.98      458.10      177.27       12.96        0.29       -4.41    19.19    12.47     7.76
 -704.922   -701.978     1113.57      471.47      186.83       42.55       13.66        5.15    19.45    12.65     7.97
 -701.978   -699.034     1099.39      460.49      167.38       28.37        2.67      -14.30    19.32    12.51     7.54
 -699.034   -696.090     1044.51      443.43      189.22      -26.51      -14.38        7.53    18.84    12.27     8.02
 -696.090   -693.146     1094.92      455.36      175.56       23.89       -2.45       -6.12    19.29    12.44     7.72
 -693.146   -690.202     1047.56      457.76      179.65      -23.46       -0.05       -2.03    18.86    12.47     7.81
 -690.202   -687.258     1045.97      452.69      182.41      -25.05       -5.12        0.73    18.85    12.40     7.87
 -687.258   -684.314     1085.09      482.41      193.65       14.07       24.60       11.97    19.20    12.80     8.11
 -684.314   -681.370     1100.81      459.83      172.16       29.79        2.01       -9.52    19.34    12.50     7.65
 -681.370   -678.426     1082.61      455.06      176.60       11.59       -2.76       -5.08    19.18    12.43     7.75
 -678.426   -675.482     1077.75      461.17      186.47        6.72        3.36        4.79    19.13    12.52     7.96
 -675.482   -672.538     1050.93      456.03      183.40      -20.09       -1.78        1.71    18.89    12.45     7.89
 -672.538   -669.594     1078.88      475.93      196.72        7.86       18.11       15.03    19.14    12.71     8.17
 -669.594   -666.650     1082.60      467.31      186.81       11.58        9.50        5.13    19.18    12.60     7.97
 -666.650   -663.706     1072.29      452.30      178.64        1.26       -5.52       -3.05    19.09    12.39     7.79
 -663.706   -660.762     1079.51      448.21      183.76        8.48       -9.60        2.08    19.15    12.34     7.90
 -660.762   -657.818     1088.10      455.73      185.12       17.08       -2.09        3.44    19.23    12.44     7.93
 -657.818   -654.874     1071.80      446.44      164.98        0.77      -11.37      -16.70    19.08    12.31     7.49
 -654.874   -651.930     1079.86      459.12      180.33        8.84        1.31       -1.35    19.15    12.49     7.83
 -651.930   -648.986     1060.91      431.42      177.60      -10.11      -26.40       -4.08    18.98    12.11     7.77
 -648.986   -646.042     1049.34      453.34      180.01      -21.68       -4.47       -1.67    18.88    12.41     7.82
 -646.042   -643.098     1052.40      482.72      185.79      -18.62       24.91        4.11    18.91    12.80     7.94
 -643.098   -640.154     1079.79      455.35      175.56        8.77       -2.47       -6.13    19.15    12.44     7.72
 -640.154   -637.210     1081.18      455.34      184.42       10.15       -2.47        2.74    19.16    12.44     7.92
 -637.210   -634.266     1062.36      452.30      186.82       -8.66       -5.52        5.14    19.00    12.39     7.97
 -634.266   -631.322     1063.76      458.49      187.87       -7.26        0.68        6.18    19.01    12.48     7.99
 -631.322   -628.378     1080.87      453.66      195.00        9.85       -4.15       13.32    19.16    12.41     8.14
 -628.378   -625.434     1087.78      456.07      180.01       16.76       -1.75       -1.68    19.22    12.45     7.82
 -625.434   -622.490     1086.29      454.00      179.99       15.27       -3.81       -1.69    19.21    12.42     7.82
 -622.490   -619.546     1063.64      458.42      185.78       -7.38        0.60        4.10    19.01    12.48     7.94
 -619.546   -616.602     1055.55      461.23      192.98      -15.47        3.42       11.30    18.93    12.52     8.10
 -616.602   -613.658     1072.24      455.68      175.21        1.22       -2.13       -6.47    19.08    12.44     7.71
 -613.658   -610.714     1030.42      434.57      184.80      -40.60      -23.24        3.12    18.71    12.15     7.92
 -610.714   -607.770     1074.09      479.66      169.09        3.07       21.84      -12.59    19.10    12.76     7.58
 -607.770   -604.826     1068.53      468.71      177.61       -2.49       10.90       -4.07    19.05    12.62     7.77
 -604.826   -601.882     1054.56      464.31      203.21      -16.46        6.50       21.53    18.93    12.56     8.31
 -601.882   -598.938     1095.98      447.20      191.60       24.96      -10.62        9.92    19.29    12.32     8.07
 -598.938   -595.994     1083.28      454.71      184.44       12.25       -3.10        2.76    19.18    12.43     7.92
 -595.994   -593.050     1093.59      452.33      182.75       22.57       -5.48        1.07    19.27    12.39     7.88
 -593.050   -590.106     1110.43      458.14      188.88       39.41        0.33        7.20    19.42    12.47     8.01
 -590.106   -587.162     1054.17      484.80      186.82      -16.85       26.98        5.14    18.92    12.83     7.97
 -587.162   -584.218     1066.77      430.08      175.23       -4.26      -27.73       -6.45    19.04    12.09     7.71
 -584.218   -581.274     1097.66      439.66      182.73       26.64      -18.16        1.05    19.31    12.22     7.88
 -581.274   -578.330     1078.18      472.14      183.41        7.16       14.33        1.73    19.14    12.66     7.89
 -578.330   -575.386     1106.52      439.27      185.10       35.49      -18.54        3.42    19.39    12.21     7.93
 -575.386   -572.442     1037.92      460.16      178.97      -33.10        2.34       -2.71    18.78    12.50     7.80
 -572.442   -569.498     1109.75      463.25      163.65       38.73        5.44      -18.04    19.41    12.54     7.46
 -569.498   -566.554     1061.34      462.91      182.05       -9.69        5.10        0.37    18.99    12.54     7.86
 -566.554   -563.610     1086.41      469.41      196.03       15.38       11.60       14.35    19.21    12.63     8.16
 -563.610   -560.666     1082.59      457.39      171.12       11.57       -0.42      -10.56    19.18    12.46     7.62
 -560.666   -557.722     1095.63      439.35      185.14       24.61      -18.46        3.46    19.29    12.22     7.93
 -557.722   -554.778     1108.66      466.29      173.85       37.64        8.48       -7.83    19.41    12.59     7.69
 -554.778   -551.834     1086.33      455.03      176.25       15.31       -2.78       -5.43    19.21    12.43     7.74
 -551.834   -548.890     1091.86      451.61      171.14       20.83       -6.20      -10.54    19.26    12.39     7.62
 -548.890   -545.946     1072.29      469.36      186.80        1.26       11.55        5.12    19.09    12.63     7.97
 -545.946   -543.002     1107.57      442.37      175.22       36.55      -15.45       -6.47    19.40    12.26     7.71
 -543.002   -540.058     1042.18      461.89      187.85      -28.84        4.08        6.17    18.82    12.53     7.99
 -540.058   -537.114     1073.68      464.27      189.55        2.66        6.46        7.87    19.10    12.56     8.02
 -537.114   -534.170     1078.90      463.63      191.61        7.87        5.81        9.93    19.14    12.55     8.07
 -534.170   -531.226     1067.30      421.46      172.13       -3.72      -36.35       -9.55    19.04    11.96     7.65
 -531.226   -528.282     1067.11      459.81      185.78       -3.91        2.00        4.10    19.04    12.50     7.94
