 2538.033 - KW trigger time, seconds UT.
 2542.659 - corresponding geocenter time (corrected for light propagation from Wind spacecraft to the Earth).
18.166 keV	76.716 keV - energy interval of channel G1.
76.716 keV	316.235 keV - energy interval of channel G2.
316.235 keV	1251.850 keV - energy interval of channel G3.

t1	t2 - begin and end of time bin.
G1	G2	G3 - dead-time corrected count rate counts/s in G1, G2, G3.
G1bgsub	G2bgsub	G3bgsub - dead-time corrected and background substracted count rate counts/s in G1, G2, G3.
eG1	eG2	eG3 - their errors (1 sigma level).

       t1         t2          G1          G2          G3     G1bgsub     G2bgsub     G3bgsub      eG1      eG2      eG3
 -298.857   -295.913     2368.08     1393.80     1013.05      -19.63      -29.26       14.29    28.36    21.76    18.55
 -295.913   -292.969     2361.60     1462.48     1035.70      -26.11       39.41       36.94    28.32    22.29    18.76
 -292.969   -290.025     2366.53     1418.82      989.48      -21.18       -4.24       -9.28    28.35    21.95    18.33
 -290.025   -287.081     2402.59     1435.06     1046.38       14.87       12.00       47.63    28.57    22.08    18.85
 -287.081   -284.137     2364.36     1443.37     1014.99      -23.36       20.31       16.23    28.34    22.14    18.57
 -284.137   -281.193     2423.82     1404.10      999.79       36.10      -18.96        1.04    28.69    21.84    18.43
 -281.193   -278.249       -0.00       -0.00       -0.00         nan         nan         nan      nan      nan      nan
 -278.249   -275.305     2436.74     1392.12      990.60       49.02      -30.94       -8.16    28.77    21.75    18.34
 -275.305   -272.361     2392.41     1413.50     1011.57        4.69       -9.57       12.81    28.51    21.91    18.54
 -272.361   -269.417     2472.58     1412.70      990.73       84.87      -10.36       -8.03    28.98    21.91    18.34
 -269.417   -266.473     2397.86     1435.27      963.99       10.14       12.20      -34.77    28.54    22.08    18.09
 -266.473   -263.529     2385.75     1391.07     1004.76       -1.97      -31.99        6.00    28.47    21.74    18.47
 -263.529   -260.585     2410.49     1415.01     1029.62       22.77       -8.06       30.86    28.61    21.92    18.70
 -260.585   -257.641     2397.16     1450.30      991.99        9.44       27.23       -6.77    28.54    22.20    18.36
 -257.641   -254.697     2426.18     1407.23     1027.46       38.46      -15.83       28.70    28.71    21.86    18.68
 -254.697   -251.753     2393.76     1450.10     1012.48        6.04       27.04       13.72    28.52    22.19    18.55
 -251.753   -248.809     2413.87     1471.14     1001.58       26.15       48.07        2.82    28.63    22.35    18.45
 -248.809   -245.865     2353.68     1444.44     1022.68      -34.04       21.38       23.92    28.27    22.15    18.64
 -245.865   -242.921     2368.45     1402.00     1022.95      -19.27      -21.07       24.18    28.36    21.82    18.64
 -242.921   -239.977     2435.80     1395.22     1015.50       48.08      -27.84       16.74    28.76    21.77    18.57
 -239.977   -237.033     2367.12     1439.31     1011.96      -20.59       16.25       13.20    28.36    22.11    18.54
 -237.033   -234.089     2366.65     1428.23      964.08      -21.07        5.16      -34.68    28.35    22.03    18.10
 -234.089   -231.145     2386.01     1453.48     1011.25       -1.71       30.42       12.49    28.47    22.22    18.53
 -231.145   -228.201     2388.99     1449.46      988.72        1.27       26.40      -10.04    28.49    22.19    18.33
 -228.201   -225.257     2359.78     1407.07     1029.49      -27.94      -15.99       30.73    28.31    21.86    18.70
 -225.257   -222.313     2399.10     1431.12      981.05       11.38        8.05      -17.71    28.55    22.05    18.25
 -222.313   -219.369     2342.88     1415.99     1007.73      -44.83       -7.08        8.96    28.21    21.93    18.50
 -219.369   -216.425     2393.70     1407.87     1019.36        5.99      -15.19       20.60    28.52    21.87    18.61
 -216.425   -213.481     2372.44     1418.94     1025.04      -15.28       -4.12       26.28    28.39    21.95    18.66
 -213.481   -210.537     2358.78     1397.34     1024.64      -28.94      -25.73       25.88    28.31    21.79    18.66
 -210.537   -207.593     2413.55     1411.81      993.40       25.84      -11.25       -5.36    28.63    21.90    18.37
 -207.593   -204.649     2356.11     1408.32      992.04      -31.61      -14.74       -6.72    28.29    21.87    18.36
 -204.649   -201.705     2384.73     1423.08     1004.61       -2.99        0.02        5.85    28.46    21.99    18.47
 -201.705   -198.761     2421.64     1466.53      976.16       33.93       43.47      -22.60    28.68    22.32    18.21
 -198.761   -195.817     2376.03     1437.71      982.63      -11.69       14.65      -16.13    28.41    22.10    18.27
 -195.817   -192.873     2366.28     1423.12      982.50      -21.44        0.05      -16.26    28.35    21.99    18.27
 -192.873   -189.929     2410.75     1380.29     1019.25       23.03      -42.77       20.49    28.62    21.65    18.61
 -189.929   -186.985     2374.58     1395.14     1021.78      -13.14      -27.93       23.02    28.40    21.77    18.63
 -186.985   -184.041     2367.55     1409.82     1006.20      -20.17      -13.24        7.45    28.36    21.88    18.49
 -184.041   -181.097     2373.18     1443.26     1054.91      -14.54       20.20       56.15    28.39    22.14    18.93
 -181.097   -178.153     2455.86     1390.73      971.41       68.14      -32.33      -27.35    28.88    21.73    18.16
 -178.153   -175.209     2451.45     1473.81      999.22       63.73       50.75        0.47    28.86    22.37    18.42
 -175.209   -172.265     2404.09     1437.86      998.96       16.38       14.79        0.20    28.58    22.10    18.42
 -172.265   -169.321     2339.73     1402.53      967.32      -47.99      -20.54      -31.44    28.19    21.83    18.13
 -169.321   -166.377     2384.76     1440.32      997.57       -2.96       17.25       -1.19    28.46    22.12    18.41
 -166.377   -163.433     2409.36     1437.62     1001.86       21.64       14.55        3.10    28.61    22.10    18.45
 -163.433   -160.489     2348.03     1427.27      971.94      -39.69        4.21      -26.82    28.24    22.02    18.17
 -160.489   -157.545     2382.27     1448.45      972.63       -5.45       25.38      -26.13    28.45    22.18    18.18
 -157.545   -154.601     2400.16     1434.20     1009.70       12.45       11.13       10.94    28.55    22.07    18.52
 -154.601   -151.657     2362.59     1436.14     1005.68      -25.13       13.08        6.93    28.33    22.09    18.48
 -151.657   -148.713     2427.70     1456.89      969.51       39.99       33.83      -29.25    28.72    22.25    18.15
 -148.713   -145.769     2391.22     1455.25     1020.50        3.50       32.18       21.74    28.50    22.23    18.62
 -145.769   -142.825     2399.91     1439.96      991.21       12.20       16.89       -7.55    28.55    22.12    18.35
 -142.825   -139.881     2354.26     1426.83      995.79      -33.45        3.77       -2.97    28.28    22.02    18.39
 -139.881   -136.937     2399.34     1448.95      998.75       11.62       25.89       -0.01    28.55    22.18    18.42
 -136.937   -133.993     2346.51     1372.21      989.06      -41.21      -50.85       -9.70    28.23    21.59    18.33
 -133.993   -131.049     2393.95     1412.00      997.89        6.23      -11.06       -0.87    28.52    21.90    18.41
 -131.049   -128.105     2417.05     1378.83     1033.24       29.34      -44.23       34.48    28.65    21.64    18.73
 -128.105   -125.161     2408.19     1444.46      984.50       20.47       21.40      -14.26    28.60    22.15    18.29
 -125.161   -122.217     2345.55     1431.24      987.08      -42.16        8.18      -11.68    28.23    22.05    18.31
 -122.217   -119.273     2402.09     1446.04      996.59       14.37       22.97       -2.17    28.56    22.16    18.40
 -119.273   -116.329     2376.95     1474.37     1013.53      -10.77       51.31       14.77    28.41    22.38    18.55
 -116.329   -113.385     2362.44     1433.12     1029.39      -25.27       10.06       30.63    28.33    22.06    18.70
 -113.385   -110.441     2374.20     1421.53     1009.45      -13.52       -1.53       10.69    28.40    21.97    18.52
 -110.441   -107.497     2385.60     1419.19      994.73       -2.12       -3.87       -4.03    28.47    21.96    18.38
 -107.497   -104.553     2386.47     1433.62      974.07       -1.25       10.55      -24.69    28.47    22.07    18.19
 -104.553   -101.609     2448.40     1454.17      978.36       60.68       31.11      -20.40    28.84    22.23    18.23
 -101.609    -98.665     2381.22     1422.05      988.57       -6.49       -1.01      -10.19    28.44    21.98    18.32
  -98.665    -95.721     2382.96     1430.94     1001.56       -4.75        7.87        2.80    28.45    22.05    18.45
  -95.721    -92.777     2388.03     1411.08      994.07        0.32      -11.98       -4.69    28.48    21.89    18.38
  -92.777    -89.833     2389.09     1391.91      984.12        1.38      -31.15      -14.64    28.49    21.74    18.28
  -89.833    -86.889     2366.43     1419.08      959.56      -21.29       -3.98      -39.20    28.35    21.95    18.05
  -86.889    -83.945     2366.68     1432.96      987.44      -21.04        9.90      -11.32    28.35    22.06    18.31
  -83.945    -81.001     2341.78     1430.94      964.69      -45.94        7.87      -34.07    28.20    22.05    18.10
  -81.001    -78.057     2359.11     1413.08     1015.07      -28.61       -9.98       16.31    28.31    21.91    18.57
  -78.057    -75.113     2412.71     1422.35      968.14       24.99       -0.71      -30.62    28.63    21.98    18.13
  -75.113    -72.169     2386.51     1393.42      980.39       -1.21      -29.65      -18.37    28.47    21.76    18.25
  -72.169    -69.225     2375.05     1396.88      994.68      -12.66      -26.18       -4.08    28.40    21.78    18.38
  -69.225    -66.281     2390.23     1402.74     1003.69        2.51      -20.32        4.93    28.49    21.83    18.46
  -66.281    -63.337     2365.84     1373.95      992.95      -21.87      -49.12       -5.81    28.35    21.60    18.36
  -63.337    -60.393     2358.52     1398.44     1009.60      -29.20      -24.62       10.84    28.30    21.80    18.52
  -60.393    -57.449     2412.11     1401.67      983.03       24.40      -21.40      -15.73    28.62    21.82    18.27
  -57.449    -54.505     2421.89     1401.39      979.86       34.17      -21.68      -18.91    28.68    21.82    18.24
  -54.505    -51.561     2399.32     1440.88      981.27       11.61       17.82      -17.49    28.55    22.12    18.26
  -51.561    -48.617     2414.27     1393.03      943.79       26.56      -30.03      -54.97    28.64    21.75    17.91
  -48.617    -45.673     2314.06     1423.82      982.58      -73.66        0.75      -16.18    28.04    21.99    18.27
  -45.673    -42.729     2365.54     1389.38      976.69      -22.18      -33.69      -22.07    28.35    21.72    18.21
  -42.729    -39.785     2446.03     1413.38     1000.49       58.31       -9.69        1.73    28.82    21.91    18.43
  -39.785    -36.841     2408.13     1424.64     1011.49       20.41        1.58       12.73    28.60    22.00    18.54
  -36.841    -33.897     2397.62     1407.40      979.23        9.90      -15.66      -19.54    28.54    21.86    18.24
  -33.897    -30.953     2416.33     1409.17     1004.15       28.61      -13.90        5.38    28.65    21.88    18.47
  -30.953    -28.009     2409.70     1392.69     1001.41       21.99      -30.37        2.65    28.61    21.75    18.44
  -28.009    -25.065     2427.59     1408.48      976.74       39.87      -14.59      -22.02    28.72    21.87    18.21
  -25.065    -22.121     2438.71     1386.73      985.63       50.99      -36.34      -13.13    28.78    21.70    18.30
  -22.121    -19.177     2495.45     1452.07      980.11      107.73       29.00      -18.66    29.11    22.21    18.25
  -19.177    -16.233     2643.74     1376.92      972.02      256.02      -46.14      -26.74    29.97    21.63    18.17
  -16.233    -13.289     2899.29     1442.04      987.39      511.57       18.98      -11.37    31.38    22.13    18.31
  -13.289    -10.345     3349.05     1427.47      999.82      961.33        4.41        1.06    33.73    22.02    18.43
  -10.345     -7.401     4247.72     1491.38      972.16     1860.01       68.31      -26.60    37.98    22.51    18.17
   -7.401     -4.457     4666.05     1424.84      991.27     2278.33        1.78       -7.49    39.81    22.00    18.35
   -4.457     -1.513     5622.42     1505.24      970.80     3234.70       82.17      -27.96    43.70    22.61    18.16
   -1.513     -0.512     9386.74     1582.09      962.56     6999.02      159.02      -36.20    96.84    39.76    31.01
   -0.512     -0.496     8179.39     1640.12      564.29     5791.88      216.88     -434.38   714.99   320.16   187.81
   -0.496     -0.480     9995.43     1836.00     1202.57     7607.50      413.12      203.75   790.37   338.77   274.15
   -0.480     -0.464    10572.23     1644.99     1069.85     8185.00      221.88       71.25   812.88   320.64   258.60
   -0.464     -0.448     9633.41     1389.15      881.55     7246.25      -33.75     -116.88   775.96   294.68   234.77
   -0.448     -0.432     9403.41     2347.13      944.24     7015.62      923.75      -54.38   766.61   382.99   242.95
   -0.432     -0.416    10039.18     1770.87      753.91     7651.88      347.50     -245.00   792.12   332.66   217.05
   -0.416     -0.400    10542.86     1009.60      754.57     8155.62     -413.75     -244.38   811.75   251.17   217.14
   -0.400     -0.384     8652.98     2218.93      757.27     6265.00      795.62     -241.25   735.38   372.39   217.59
   -0.384     -0.368     9906.41     1137.00     1324.15     7518.75     -286.25      325.62   786.86   266.56   287.70
   -0.368     -0.352     9996.35     1836.43     1323.80     7608.75      413.12      325.00   790.42   338.77   287.64
   -0.240     -0.224    10980.25     2213.42      566.26     8593.12      790.62     -432.50   828.43   371.97   188.12
   -0.224     -0.208    10710.43     1641.33      882.90     8322.50      218.12     -115.62   818.15   320.28   234.94
   -0.208     -0.192    10587.01     1774.34     1134.17     8199.38      351.25      135.62   813.44   333.01   266.27
   -0.192     -0.176    10460.69     2157.11     1005.87     8073.12      733.75        6.88   808.57   367.16   250.70
   -0.176     -0.160     9789.34     2153.07      879.60     7401.88      730.00     -119.38   782.20   366.84   234.44
   -0.160     -0.144     9522.53     2284.06      817.23     7135.00      861.25     -181.25   771.46   377.85   226.04
   -0.144     -0.128     9061.37     1964.00     1070.18     6673.75      540.62       71.25   752.55   350.33   258.60
   -0.128     -0.112    11111.69     1897.46      943.91     8723.75      474.38      -55.00   833.34   344.37   242.87
   -0.112     -0.096    10393.26     2477.93      819.22     8005.62     1055.00     -179.38   805.96   393.55   226.30
   -0.096     -0.080    11173.80     1832.72      628.26     8786.25      409.38     -370.62   835.68   338.43   198.14
   -0.080     -0.064    11043.30     1769.66      754.93     8655.62      346.25     -243.75   830.78   332.55   217.23
   -0.064     -0.048    11057.19     2088.70     1009.86     8670.00      665.62       11.25   831.32   361.31   251.25
   -0.048     -0.032    11537.95     1966.09     1008.86     9150.62      543.12       10.00   849.20   350.56   251.09
   -0.032     -0.016    12153.78     2412.54     1197.54     9766.25      989.38      198.75   871.56   388.31   273.58
   -0.016      0.000    10297.91     2548.88     1643.09     7910.62     1125.62      644.38   802.27   399.12   320.46
    0.000      0.016    11260.68     2091.54     1070.18     8873.12      668.75       71.25   838.92   361.58   258.60
    0.016      0.032    10806.20     2793.91      879.60     8418.12     1370.62     -119.38   821.80   417.86   234.44
    0.032      0.048    11000.38     2600.56      881.88     8613.12     1177.50     -116.88   829.18   403.16   234.77
    0.048      0.064    11718.47     1901.49     1071.84     9331.25      478.12       73.12   855.82   344.71   258.83
    0.064      0.080    12547.40     2220.96     1069.24    10159.38      797.50       70.62   885.54   372.54   258.53
    0.080      0.096    11615.79     2793.56      818.55     9228.75     1370.62     -180.00   852.07   417.86   226.21
    0.096      0.112    11324.07     2539.23      753.59     8936.88     1116.25     -245.00   841.29   398.38   217.05
    0.112      0.128    12081.07     2667.84      627.96     9693.12     1244.38     -370.62   868.93   408.31   198.14
    0.128      0.144    12861.52     1708.37     1069.86    10474.38      285.00       71.25   896.59   326.74   258.60
    0.144      0.160    12269.53     2088.68     1007.19     9882.50      665.62        8.75   875.71   361.31   250.94
    0.160      0.176    11643.19     3126.47     1451.84     9255.62     1703.12      453.12   853.05   442.03   301.23
    0.176      0.192    11905.50     1451.50      944.87     9518.12       28.12      -53.75   862.61   301.17   243.03
    0.192      0.208    13374.14     2738.86     1132.85    10986.88     1315.62      134.38   914.27   413.73   266.12
    0.208      0.224    10741.72     2220.70     1324.52     8353.75      797.50      325.62   819.35   372.54   287.70
    0.224      0.240    12955.79     2223.62     1261.82    10568.75      800.62      263.12   899.87   372.81   280.83
    0.240      0.256    13060.26     1958.33      692.24    10673.12      535.00     -306.25   903.49   349.83   208.04
    0.256      0.272    12855.37     1957.90      566.28    10467.50      535.00     -432.50   896.35   349.83   188.12
    0.272      0.288    11346.04     2539.11     1197.16     8958.75     1116.25      198.12   842.11   398.38   273.50
    0.288      0.304    12120.60     2089.21      753.58     9733.12      666.25     -245.00   870.37   361.37   217.05
    0.304      0.320    12384.95     2350.37      880.91     9996.88      926.88     -118.12   879.79   383.24   234.60
    0.320      0.336    11101.07     1771.14      817.89     8713.75      348.12     -180.62   832.96   332.72   226.13
    0.336      0.352    10793.91     2216.32      943.58     8406.25      793.12      -55.00   821.35   372.18   242.87
    0.352      0.368    10206.08     1651.82     1260.81     7818.75      228.75      261.88   798.68   321.31   280.69
    0.368      0.384    13411.06     2604.71     1007.19    11023.75     1181.88        8.75   915.53   403.50   250.94
    0.384      0.400    12682.41     1906.28     1261.19    10294.38      483.12      262.50   890.29   345.17   280.76
    0.400      0.416    11833.93     2929.18     1324.80     9446.88     1506.25      326.25   860.03   427.88   287.77
    0.416      0.432    11996.92     2281.06      753.91     9609.38      858.12     -245.00   865.91   377.60   217.05
    0.432      0.448    13852.69     3250.68     1069.90    11465.00     1827.50       71.25   930.47   450.74   258.60
    0.448      0.464    12859.33     1583.43     1007.86    10471.88      160.62        9.38   896.50   314.62   251.01
    0.464      0.480    14077.47     2155.18     1007.86    11690.00      731.88        9.38   938.00   367.00   251.01
    0.480      0.496    13631.41     2091.09     1200.20    11243.75      668.12      201.25   923.01   361.53   273.86
    0.496      0.512    13215.05     2025.70      944.87    10827.50      602.50      -53.75   908.81   355.81   243.03
    0.512      0.528    12517.32     2029.91     1702.42    10130.00      606.88      703.75   884.50   356.19   326.20
