40720.892 - KW trigger time, seconds UT.
40726.388 - corresponding geocenter time (corrected for light propagation from Wind spacecraft to the Earth).
18.320 keV	77.365 keV - energy interval of channel G1.
77.365 keV	318.914 keV - energy interval of channel G2.
318.914 keV	1262.452 keV - energy interval of channel G3.

t1	t2 - begin and end of time bin.
G1	G2	G3 - dead-time corrected count rate counts/s in G1, G2, G3.
G1bgsub	G2bgsub	G3bgsub - dead-time corrected and background substracted count rate counts/s in G1, G2, G3.
eG1	eG2	eG3 - their errors (1 sigma level).

       t1         t2          G1          G2          G3     G1bgsub     G2bgsub     G3bgsub      eG1      eG2      eG3
-1148.291  -1145.347     1046.06      348.87      116.73       15.54       12.18        5.58    18.85    10.89     6.30
-1145.347  -1142.403     1043.90      325.33       98.35       13.38      -11.36      -12.80    18.83    10.51     5.78
-1142.403  -1139.459     1036.84      360.48      111.97        6.33       23.79        0.82    18.77    11.07     6.17
-1139.459  -1136.515     1032.97      337.95      117.07        2.46        1.26        5.92    18.73    10.71     6.31
-1136.515  -1133.571     1043.23      336.25      120.13       12.71       -0.44        8.98    18.82    10.69     6.39
-1133.571  -1130.627      976.14      333.20      105.50      -54.37       -3.49       -5.64    18.21    10.64     5.99
-1130.627  -1127.683     1051.61      343.77      117.42       21.09        7.08        6.27    18.90    10.81     6.32
-1127.683  -1124.739       -0.00       -0.00      114.69         nan         nan        3.54      nan      nan     6.24
-1124.739  -1121.795     1032.28      333.18      115.03        1.77       -3.51        3.88    18.73    10.64     6.25
-1121.795  -1118.851     1020.66      327.06      122.52       -9.85       -9.63       11.38    18.62    10.54     6.45
-1118.851  -1115.907     1011.39      326.37      109.59      -19.13      -10.32       -1.56    18.54    10.53     6.10
-1115.907  -1112.963     1041.57      344.10      113.33       11.05        7.41        2.18    18.81    10.81     6.20
-1112.963  -1110.019     1011.70      321.24      109.24      -18.82      -15.45       -1.91    18.54    10.45     6.09
-1110.019  -1107.075     1024.12      337.62      110.27       -6.39        0.93       -0.88    18.65    10.71     6.12
-1107.075  -1104.131      997.69      350.21       96.30      -32.82       13.52      -14.85    18.41    10.91     5.72
-1104.131  -1101.187     1045.69      332.16      110.94       15.17       -4.53       -0.20    18.85    10.62     6.14
-1101.187  -1098.243     1037.09      335.90      108.90        6.57       -0.80       -2.25    18.77    10.68     6.08
-1098.243  -1095.299     1006.96      335.91      107.88      -23.56       -0.79       -3.27    18.49    10.68     6.05
-1095.299  -1092.355     1047.39      335.22      113.32       16.87       -1.47        2.17    18.86    10.67     6.20
-1092.355  -1089.411     1004.59      333.55      119.12      -25.92       -3.15        7.97    18.47    10.64     6.36
-1089.411  -1086.467     1037.05      343.05      119.44        6.53        6.36        8.29    18.77    10.79     6.37
-1086.467  -1083.523     1024.11      350.56      105.83       -6.41       13.87       -5.32    18.65    10.91     6.00
-1083.523  -1080.579     1035.41      337.29      105.84        4.89        0.59       -5.31    18.75    10.70     6.00
-1080.579  -1077.635     1012.71      329.40      100.72      -17.81       -7.29      -10.43    18.55    10.58     5.85
-1077.635  -1074.691     1010.07      334.88      107.88      -20.45       -1.82       -3.27    18.52    10.66     6.05
-1074.691  -1071.747     1027.45      325.67      114.69       -3.07      -11.03        3.54    18.68    10.52     6.24
-1071.747  -1068.803     1046.31      327.37      121.49       15.79       -9.32       10.34    18.85    10.54     6.42
-1068.803  -1065.859     1018.58      335.55      109.58      -11.94       -1.14       -1.57    18.60    10.68     6.10
-1065.859  -1062.915     1026.11      331.46      100.39       -4.40       -5.23      -10.76    18.67    10.61     5.84
-1062.915  -1059.971     1013.43      334.88      111.96      -17.08       -1.81        0.81    18.55    10.66     6.17
-1059.971  -1057.027     1030.91      346.45      112.97        0.39        9.76        1.82    18.71    10.85     6.20
-1057.027  -1054.083     1034.65      324.67      111.97        4.14      -12.02        0.82    18.75    10.50     6.17
-1054.083  -1051.139     1002.52      340.33      106.51      -27.99        3.64       -4.63    18.45    10.75     6.01
-1051.139  -1048.195     1028.54      331.47      118.43       -1.97       -5.22        7.28    18.69    10.61     6.34
-1048.195  -1045.251     1060.48      354.68      118.09       29.96       17.99        6.94    18.98    10.98     6.33
-1045.251  -1042.307     1025.77      347.15      108.21       -4.75       10.46       -2.94    18.67    10.86     6.06
-1042.307  -1039.363     1056.98      326.35      110.26       26.47      -10.34       -0.89    18.95    10.53     6.12
-1039.363  -1036.419     1049.50      352.63      110.94       18.98       15.94       -0.20    18.88    10.94     6.14
-1036.419  -1033.475     1042.30      344.46      119.46       11.78        7.76        8.31    18.82    10.82     6.37
-1033.475  -1030.531     1006.25      331.14      111.97      -24.26       -5.56        0.82    18.49    10.61     6.17
-1030.531  -1027.587     1041.58      348.53      114.34       11.07       11.84        3.20    18.81    10.88     6.23
-1027.587  -1024.643     1019.96      330.79      111.28      -10.56       -5.90        0.14    18.61    10.60     6.15
-1024.643  -1021.699     1010.05      325.01      117.08      -20.46      -11.68        5.93    18.52    10.51     6.31
-1021.699  -1018.755     1040.12      320.21      110.94        9.60      -16.48       -0.21    18.80    10.43     6.14
-1009.923  -1006.979     1046.75      337.63      114.01       16.23        0.94        2.86    18.86    10.71     6.22
-1006.979  -1004.035     1039.20      323.99      124.57        8.68      -12.70       13.42    18.79    10.49     6.50
-1004.035  -1001.091     1000.91      357.75      120.48      -29.60       21.06        9.33    18.44    11.02     6.40
-1001.091   -998.147      994.27      330.78      117.75      -36.24       -5.91        6.60    18.38    10.60     6.32
 -998.147   -995.203     1036.33      303.51      119.45        5.81      -33.19        8.30    18.76    10.15     6.37
 -995.203   -992.259     1050.20      355.36      108.56       19.68       18.66       -2.58    18.89    10.99     6.07
 -992.259   -989.315     1035.41      342.39      104.14        4.89        5.70       -7.01    18.75    10.78     5.95
 -989.315   -986.371     1037.75      320.56      120.47        7.23      -16.13        9.33    18.77    10.44     6.40
 -986.371   -983.427     1037.08      330.44      111.28        6.56       -6.26        0.13    18.77    10.59     6.15
 -983.427   -980.483     1004.97      357.41      109.25      -25.54       20.72       -1.90    18.48    11.02     6.09
 -980.483   -977.539     1045.22      331.10      110.25       14.70       -5.59       -0.90    18.84    10.61     6.12
 -977.539   -974.595     1047.05      342.74      115.71       16.53        6.05        4.56    18.86    10.79     6.27
 -974.595   -971.651     1063.51      344.11      115.37       32.99        7.41        4.22    19.01    10.81     6.26
 -971.651   -968.707     1022.39      334.90      120.48       -8.12       -1.79        9.33    18.64    10.67     6.40
 -968.707   -965.763     1019.92      333.83      104.12      -10.59       -2.86       -7.02    18.61    10.65     5.95
 -965.763   -962.819     1017.64      341.37      115.71      -12.87        4.68        4.56    18.59    10.77     6.27
 -962.819   -959.875     1007.31      335.91      107.20      -23.21       -0.78       -3.95    18.50    10.68     6.03
 -959.875   -956.931     1065.24      343.75      101.07       34.73        7.05      -10.07    19.02    10.81     5.86
 -956.931   -953.987     1052.63      350.58      117.07       22.11       13.89        5.92    18.91    10.91     6.31
 -953.987   -951.043     1024.48      353.98      111.62       -6.04       17.29        0.47    18.65    10.96     6.16
 -951.043   -948.099     1053.86      334.20      116.72       23.35       -2.50        5.58    18.92    10.65     6.30
 -948.099   -945.155     1038.76      338.61      103.45        8.24        1.92       -7.70    18.78    10.72     5.93
 -945.155   -942.211     1018.27      318.87      120.48      -12.25      -17.82        9.33    18.60    10.41     6.40
 -942.211   -939.267     1043.35      344.80      118.10       12.84        8.11        6.95    18.83    10.82     6.33
 -939.267   -936.323     1035.02      333.49      104.81        4.50       -3.20       -6.34    18.75    10.64     5.97
 -936.323   -933.379     1031.23      303.53      116.06        0.72      -33.16        4.92    18.72    10.15     6.28
 -933.379   -930.435     1022.36      343.40      104.81       -8.16        6.71       -6.33    18.64    10.80     5.97
 -930.435   -927.491     1041.56      343.75      106.86       11.04        7.06       -4.29    18.81    10.81     6.03
 -927.491   -924.547     1028.18      328.74      115.70       -2.33       -7.96        4.55    18.69    10.57     6.27
 -924.547   -921.603     1019.95      348.52      102.77      -10.57       11.83       -8.38    18.61    10.88     5.91
 -921.603   -918.659     1056.98      333.19      114.35       26.47       -3.50        3.20    18.95    10.64     6.23
 -918.659   -915.715       -0.00       -0.00       -0.00         nan         nan         nan      nan      nan      nan
 -915.715   -912.771     1043.91      327.39      106.86       13.39       -9.30       -4.28    18.83    10.54     6.03
 -912.771   -909.827     1010.68      346.79      110.93      -19.84       10.10       -0.22    18.53    10.85     6.14
 -909.827   -906.883     1030.66      342.73      111.62        0.14        6.04        0.48    18.71    10.79     6.16
 -906.883   -903.939     1033.32      338.96      101.75        2.81        2.27       -9.40    18.73    10.73     5.88
 -903.939   -900.995     1004.22      341.70      103.45      -26.30        5.01       -7.69    18.47    10.77     5.93
 -900.995   -898.051     1042.95      345.11      105.84       12.43        8.42       -5.31    18.82    10.83     6.00
 -898.051   -895.107     1028.62      338.31      111.64       -1.90        1.62        0.49    18.69    10.72     6.16
 -895.107   -892.163     1015.26      356.05      113.67      -15.26       19.36        2.52    18.57    11.00     6.21
 -892.163   -889.219     1030.58      323.30      115.38        0.06      -13.40        4.23    18.71    10.48     6.26
 -889.219   -886.275     1036.39      348.85       97.66        5.87       12.15      -13.48    18.76    10.88     5.76
 -886.275   -883.331     1001.54      337.98      112.65      -28.97        1.28        1.50    18.44    10.71     6.19
 -883.331   -880.387     1045.06      351.27      106.52       14.54       14.58       -4.63    18.84    10.92     6.01
 -880.387   -877.443     1014.12      326.70      111.29      -16.39       -9.99        0.14    18.56    10.53     6.15
 -877.443   -874.499     1053.78      324.63       94.94       23.26      -12.06      -16.21    18.92    10.50     5.68
 -874.499   -871.555     1038.86      358.75      115.70        8.35       22.06        4.56    18.79    11.04     6.27
 -871.555   -868.611     1008.36      345.46      112.65      -22.16        8.77        1.50    18.51    10.83     6.19
 -868.611   -865.667     1027.89      333.19      109.25       -2.63       -3.50       -1.90    18.68    10.64     6.09
 -865.667   -862.723     1003.57      346.50      112.31      -26.95        9.81        1.16    18.46    10.85     6.18
 -862.723   -859.779     1012.38      326.34      110.26      -18.14      -10.35       -0.89    18.54    10.53     6.12
 -859.779   -856.835     1053.26      352.99      109.93       22.74       16.29       -1.22    18.91    10.95     6.11
 -856.835   -853.891     1039.15      325.00      120.14        8.63      -11.69        8.99    18.79    10.51     6.39
 -853.891   -850.947     1029.53      330.13      113.33       -0.98       -6.56        2.18    18.70    10.59     6.21
 -850.947   -848.003      997.37      328.07      119.45      -33.14       -8.62        8.30    18.41    10.56     6.37
 -848.003   -845.059     1072.35      327.37      111.28       41.83       -9.32        0.13    19.09    10.54     6.15
 -845.059   -842.115     1039.83      342.39      115.03        9.31        5.70        3.88    18.79    10.78     6.25
 -842.115   -839.171     1021.49      357.43      109.59       -9.03       20.74       -1.56    18.63    11.02     6.10
 -839.171   -836.227     1026.54      337.29      123.88       -3.97        0.60       12.73    18.67    10.70     6.49
 -836.227   -833.283     1038.46      332.50      105.84        7.95       -4.19       -5.31    18.78    10.63     6.00
 -833.283   -830.339     1030.28      334.56      103.46       -0.23       -2.14       -7.69    18.71    10.66     5.93
 -830.339   -827.395     1084.69      329.75       98.69       54.18       -6.94      -12.46    19.20    10.58     5.79
 -827.395   -824.451     1041.85      339.98      109.23       11.34        3.29       -1.92    18.81    10.75     6.09
 -824.451   -821.507     1012.11      341.36      107.54      -18.41        4.67       -3.61    18.54    10.77     6.04
 -821.507   -818.563     1068.28      340.33      100.05       37.76        3.64      -11.10    19.05    10.75     5.83
 -818.563   -815.619     1012.48      340.70      115.37      -18.04        4.00        4.23    18.55    10.76     6.26
 -815.619   -812.675     1027.11      318.84      101.75       -3.40      -17.85       -9.40    18.68    10.41     5.88
 -812.675   -809.731     1048.08      336.60      119.79       17.57       -0.09        8.64    18.87    10.69     6.38
 -809.731   -806.787     1006.97      348.53      114.69      -23.55       11.84        3.54    18.49    10.88     6.24
 -806.787   -803.843     1035.00      333.16      113.66        4.48       -3.53        2.51    18.75    10.64     6.21
 -803.843   -800.899     1028.95      343.09      123.20       -1.57        6.40       12.06    18.70    10.79     6.47
 -800.899   -797.955     1036.06      330.80      107.88        5.54       -5.89       -3.27    18.76    10.60     6.05
 -797.955   -795.011     1047.69      343.05      103.11       17.17        6.35       -8.04    18.86    10.79     5.92
 -795.011   -792.067     1056.25      330.46      111.62       25.73       -6.24        0.48    18.94    10.60     6.16
 -792.067   -789.123     1008.70      330.80      113.33      -21.81       -5.89        2.18    18.51    10.60     6.20
 -789.123   -786.179     1006.65      343.06      120.81      -23.86        6.37        9.66    18.49    10.79     6.41
 -786.179   -783.235     1045.32      334.20      113.32       14.81       -2.50        2.17    18.84    10.65     6.20
 -783.235   -780.291     1052.17      342.72      108.90       21.65        6.03       -2.25    18.91    10.79     6.08
 -780.291   -777.347     1016.89      333.52      116.39      -13.62       -3.17        5.24    18.59    10.64     6.29
 -777.347   -774.403     1036.71      322.95      111.28        6.20      -13.74        0.13    18.77    10.47     6.15
 -774.403   -771.459     1042.17      317.49      110.94       11.66      -19.20       -0.21    18.82    10.38     6.14
 -771.459   -768.515     1037.80      336.25      106.86        7.28       -0.45       -4.29    18.77    10.69     6.03
 -768.515   -765.571     1045.55      333.48       96.30       15.03       -3.21      -14.85    18.84    10.64     5.72
 -765.571   -762.627       -0.00       -0.00       -0.00         nan         nan         nan      nan      nan      nan
 -756.739   -753.795     1017.25      344.10      110.94      -13.27        7.41       -0.20    18.59    10.81     6.14
 -753.795   -750.851     1029.18      315.11      109.92       -1.33      -21.59       -1.22    18.70    10.35     6.11
 -750.851   -747.907     1025.83      333.20      119.80       -4.69       -3.49        8.65    18.67    10.64     6.38
 -747.907   -744.963     1074.10      340.69      119.11       43.58        4.00        7.96    19.10    10.76     6.36
 -744.963   -742.019     1037.50      350.92      120.13        6.99       14.23        8.99    18.77    10.92     6.39
 -742.019   -739.075     1064.13      326.01      106.18       33.61      -10.68       -4.97    19.01    10.52     6.01
 -739.075   -736.131     1028.16      338.63      109.58       -2.35        1.94       -1.57    18.69    10.72     6.10
 -736.131   -733.187     1036.07      343.08      107.88        5.55        6.39       -3.26    18.76    10.79     6.05
 -733.187   -730.243     1008.26      329.41      105.49      -22.26       -7.28       -5.66    18.51    10.58     5.99
 -730.243   -727.299      998.76      331.48      112.65      -31.75       -5.21        1.50    18.42    10.61     6.19
 -727.299   -724.355     1062.83      338.30      124.22       32.31        1.61       13.07    19.00    10.72     6.50
 -724.355   -721.411     1037.40      342.02      110.59        6.88        5.33       -0.56    18.77    10.78     6.13
 -721.411   -718.467      988.91      347.87      123.89      -41.60       11.18       12.74    18.33    10.87     6.49
 -718.467   -715.523     1036.38      324.31      114.68        5.86      -12.38        3.54    18.76    10.50     6.24
 -715.523   -712.579     1019.64      338.98      113.67      -10.88        2.29        2.52    18.61    10.73     6.21
 -712.579   -709.635     1018.91      338.28      103.45      -11.61        1.59       -7.70    18.60    10.72     5.93
 -709.635   -706.691     1001.88      356.05      108.90      -28.64       19.36       -2.25    18.45    11.00     6.08
 -706.691   -703.747     1045.29      340.66      106.51       14.77        3.97       -4.64    18.84    10.76     6.01
 -703.747   -700.803     1034.67      337.26      113.66        4.15        0.57        2.51    18.75    10.70     6.21
 -700.803   -697.859     1013.50      340.68      110.94      -17.02        3.99       -0.20    18.55    10.76     6.14
 -697.859   -694.915     1023.38      339.65      110.60       -7.14        2.96       -0.55    18.64    10.74     6.13
 -694.915   -691.971     1010.13      354.01      119.12      -20.38       17.32        7.97    18.52    10.97     6.36
 -691.971   -689.027     1045.72      329.44      110.27       15.20       -7.25       -0.88    18.85    10.58     6.12
 -689.027   -686.083     1059.76      347.17      120.13       29.25       10.48        8.99    18.97    10.86     6.39
 -686.083   -683.139     1033.99      341.69      101.07        3.48        5.00      -10.08    18.74    10.77     5.86
 -683.139   -680.195     1050.60      347.87      117.08       20.09       11.18        5.93    18.89    10.87     6.31
 -680.195   -677.251     1025.85      342.40      115.37       -4.67        5.70        4.22    18.67    10.78     6.26
 -677.251   -674.307     1062.49      334.22      115.03       31.97       -2.47        3.89    19.00    10.65     6.25
 -674.307   -671.363     1121.76      326.67      104.81       91.24      -10.02       -6.34    19.52    10.53     5.97
 -671.363   -668.419     1140.04      356.39      113.67      109.52       19.70        2.52    19.68    11.00     6.21
 -668.419   -665.475     1200.65      326.33       99.36      170.13      -10.36      -11.79    20.20    10.53     5.81
 -665.475   -662.531     1238.18      350.91      107.53      207.66       14.21       -3.61    20.51    10.92     6.04
