60847.236 - KW trigger time, seconds UT.
60852.730 - corresponding geocenter time (corrected for light propagation from Wind spacecraft to the Earth).
18.353 keV	77.505 keV - energy interval of channel G1.
77.505 keV	319.488 keV - energy interval of channel G2.
319.488 keV	1264.724 keV - energy interval of channel G3.

t1	t2 - begin and end of time bin.
G1	G2	G3 - dead-time corrected count rate counts/s in G1, G2, G3.
G1bgsub	G2bgsub	G3bgsub - dead-time corrected and background substracted count rate counts/s in G1, G2, G3.
eG1	eG2	eG3 - their errors (1 sigma level).

       t1         t2          G1          G2          G3     G1bgsub     G2bgsub     G3bgsub      eG1      eG2      eG3
 -998.303   -995.359     1011.02      326.68      109.92       -5.36       -1.37        4.04    18.53    10.53     6.11
 -995.359   -992.415     1054.85      331.80      106.85       38.48        3.74        0.97    18.93    10.62     6.02
 -992.415   -989.471      981.94      333.52      108.22      -34.43        5.47        2.35    18.26    10.64     6.06
 -989.471   -986.527     1011.31      320.88      109.92       -5.07       -7.18        4.04    18.53    10.44     6.11
 -986.527   -983.583     1021.69      334.55      106.52        5.32        6.49        0.65    18.63    10.66     6.01
 -983.583   -980.639     1006.12      313.70       96.30      -10.26      -14.36       -9.57    18.49    10.32     5.72
 -980.639   -977.695      976.76      328.39      104.81      -39.61        0.33       -1.06    18.21    10.56     5.97
 -977.695   -974.751     1015.80      321.23      110.26       -0.57       -6.82        4.38    18.57    10.45     6.12
 -974.751   -971.807     1001.40      324.64      115.36      -14.97       -3.42        9.49    18.44    10.50     6.26
 -971.807   -968.863     1016.72      305.86      103.44        0.34      -22.20       -2.43    18.58    10.19     5.93
 -968.863   -965.919     1042.49      338.27      102.76       26.11       10.21       -3.11    18.82    10.72     5.91
 -965.919   -962.975      975.04      325.32      102.77      -41.33       -2.73       -3.10    18.20    10.51     5.91
 -962.975   -960.031      975.99      308.24      101.74      -40.38      -19.81       -4.13    18.21    10.23     5.88
 -960.031   -957.087      975.00      326.00      107.53      -41.38       -2.06        1.66    18.20    10.52     6.04
 -957.087   -954.143     1064.75      325.64      106.17       48.38       -2.42        0.29    19.02    10.52     6.00
 -954.143   -951.199       -0.00       -0.00       -0.00         nan         nan         nan      nan      nan      nan
 -945.311   -942.367     1007.21      332.80      105.15       -9.16        4.75       -0.73    18.50    10.63     5.98
 -942.367   -939.423      990.48      322.25      117.06      -25.89       -5.81       11.19    18.34    10.46     6.31
 -939.423   -936.479      994.95      333.85      106.17      -21.43        5.79        0.30    18.38    10.65     6.00
 -936.479   -933.535     1005.91      332.49      105.50      -10.47        4.44       -0.38    18.48    10.63     5.99
 -933.535   -930.591     1017.56      334.55      109.24        1.18        6.49        3.37    18.59    10.66     6.09
 -930.591   -927.647     1004.46      332.81      108.89      -11.92        4.75        3.02    18.47    10.63     6.08
 -927.647   -924.703     1039.73      322.23      106.51       23.36       -5.82        0.64    18.79    10.46     6.01
 -924.703   -921.759     1031.95      333.87      110.95       15.57        5.81        5.08    18.72    10.65     6.14
 -921.759   -918.815      989.06      307.26      109.24      -27.32      -20.79        3.37    18.33    10.22     6.09
 -918.815   -915.871     1051.43      337.25      108.21       35.05        9.19        2.34    18.90    10.70     6.06
 -915.871   -912.927      998.31      328.04       99.36      -18.06       -0.01       -6.51    18.41    10.56     5.81
 -912.927   -909.983     1007.26      340.31      102.76       -9.11       12.25       -3.11    18.50    10.75     5.91
 -909.983   -907.039     1013.05      324.63       99.02       -3.32       -3.43       -6.85    18.55    10.50     5.80
 -907.039   -904.095     1004.47      336.89       98.34      -11.91        8.84       -7.53    18.47    10.70     5.78
 -904.095   -901.151      981.52      333.49      101.40      -34.85        5.43       -4.47    18.26    10.64     5.87
 -901.151   -898.207     1034.58      329.72      104.80       18.21        1.67       -1.07    18.75    10.58     5.97
 -898.207   -895.263     1024.00      327.36       99.36        7.63       -0.69       -6.51    18.65    10.54     5.81
 -895.263   -892.319      998.36      333.50      103.11      -18.02        5.45       -2.77    18.41    10.64     5.92
 -892.319   -889.375     1016.15      344.06       94.94       -0.22       16.00      -10.93    18.58    10.81     5.68
 -889.375   -886.431     1023.34      320.89      102.77        6.97       -7.16       -3.10    18.64    10.44     5.91
 -886.431   -883.487     1031.18      321.23      106.52       14.80       -6.82        0.65    18.71    10.45     6.01
 -883.487   -880.543      986.72      338.97      112.98      -29.66       10.91        7.11    18.31    10.73     6.20
 -880.543   -877.599     1041.15      340.66      108.21       24.78       12.61        2.34    18.81    10.76     6.06
 -877.599   -874.655     1026.40      324.98      101.41       10.02       -3.08       -4.46    18.67    10.51     5.87
 -874.655   -871.711     1027.78      305.21      119.79       11.41      -22.84       13.92    18.68    10.18     6.38
 -871.711   -868.767      989.38      328.36      101.74      -27.00        0.31       -4.13    18.33    10.56     5.88
 -868.767   -865.823     1047.30      317.84      113.33       30.92      -10.22        7.46    18.86    10.39     6.20
 -865.823   -862.879     1032.61      345.10      101.07       16.23       17.05       -4.80    18.73    10.83     5.86
 -862.879   -859.935     1022.37      340.00      110.26        6.00       11.94        4.39    18.64    10.75     6.12
 -859.935   -856.991     1008.91      324.29      108.55       -7.47       -3.77        2.68    18.51    10.49     6.07
 -856.991   -854.047     1005.14      325.65       98.34      -11.24       -2.41       -7.53    18.48    10.52     5.78
 -854.047   -851.103     1016.10      319.85      109.57       -0.28       -8.21        3.70    18.58    10.42     6.10
 -851.103   -848.159     1030.15      331.09       93.23       13.77        3.04      -12.64    18.71    10.61     5.63
 -848.159   -845.215     1020.60      327.02      106.17        4.23       -1.03        0.30    18.62    10.54     6.00
 -845.215   -842.271     1020.55      334.50      109.57        4.18        6.45        3.69    18.62    10.66     6.10
 -842.271   -839.327      990.76      331.44      100.04      -25.62        3.39       -5.83    18.34    10.61     5.83
 -839.327   -836.383      981.21      334.86      106.17      -35.17        6.80        0.30    18.26    10.66     6.00
 -836.383   -833.439     1013.71      318.49      101.40       -2.67       -9.56       -4.47    18.56    10.40     5.87
 -833.439   -830.495     1014.03      306.57      102.77       -2.34      -21.49       -3.10    18.56    10.21     5.91
 -830.495   -827.551     1040.81      326.33      107.87       24.43       -1.72        2.00    18.80    10.53     6.05
 -827.551   -824.607     1024.74      324.65      106.86        8.36       -3.40        0.99    18.66    10.50     6.03
 -824.607   -821.663      949.40      326.70      111.28      -66.98       -1.35        5.41    17.96    10.53     6.15
 -821.663   -818.719     1023.33      335.20      108.21        6.96        7.15        2.34    18.64    10.67     6.06
 -818.719   -815.775      994.26      339.99      100.73      -22.12       11.93       -5.14    18.38    10.75     5.85
 -815.775   -812.831     1011.70      339.29      110.93       -4.68       11.24        5.06    18.54    10.73     6.14
 -812.831   -809.887     1002.83      330.45      113.66      -13.55        2.40        7.79    18.46    10.60     6.21
 -809.887   -806.943     1042.91      340.67      107.88       26.54       12.62        2.00    18.82    10.76     6.05
 -806.943   -803.999     1037.02      325.66      116.38       20.64       -2.40       10.51    18.77    10.52     6.29
 -803.999   -801.055     1025.13      348.19      109.58        8.76       20.14        3.71    18.66    10.88     6.10
 -801.055   -798.111     1040.78      330.77      114.00       24.41        2.71        8.12    18.80    10.60     6.22
 -798.111   -795.167     1040.84      326.71      117.75       24.46       -1.35       11.88    18.80    10.53     6.32
 -795.167   -792.223     1017.55      333.18      115.37        1.18        5.12        9.49    18.59    10.64     6.26
 -792.223   -789.279      991.78      313.72       96.98      -24.59      -14.34       -8.89    18.35    10.32     5.74
 -789.279   -786.335     1027.84      320.23      112.31       11.46       -7.82        6.44    18.68    10.43     6.18
 -786.335   -783.391     1000.31      331.08       93.57      -16.06        3.03      -12.30    18.43    10.61     5.64
 -783.391   -780.447     1002.12      335.90      103.11      -14.26        7.84       -2.76    18.45    10.68     5.92
 -780.447   -777.503     1023.00      329.75      112.98        6.62        1.70        7.11    18.64    10.58     6.20
 -777.503   -774.559     1024.05      321.92      108.56        7.67       -6.14        2.68    18.65    10.46     6.07
 -774.559   -771.615     1029.93      354.67      105.15       13.56       26.61       -0.72    18.70    10.98     5.98
 -771.615   -768.671     1033.29      329.41      107.87       16.91        1.35        2.00    18.73    10.58     6.05
 -768.671   -765.727     1037.29      304.16      105.83       20.92      -23.89       -0.04    18.77    10.16     6.00
 -765.727   -762.783     1040.81      340.99      105.48       24.44       12.94       -0.39    18.80    10.76     5.99
 -762.783   -759.839     1013.41      334.17      102.43       -2.97        6.12       -3.45    18.55    10.65     5.90
 -759.839   -756.895     1028.41      309.29      110.26       12.03      -18.76        4.38    18.69    10.25     6.12
 -756.895   -753.951     1003.48      332.49      111.62      -12.90        4.43        5.75    18.46    10.63     6.16
 -753.951   -751.007     1008.89      315.43      104.47       -7.48      -12.62       -1.40    18.51    10.35     5.96
 -751.007   -748.063     1026.34      311.32      111.27        9.97      -16.73        5.40    18.67    10.28     6.15
 -748.063   -745.119     1009.95      335.88       99.70       -6.43        7.83       -6.17    18.52    10.68     5.82
 -745.119   -742.175     1053.51      338.63      109.92       37.14       10.57        4.05    18.92    10.72     6.11
 -742.175   -739.231     1020.52      315.07      101.06        4.14      -12.99       -4.81    18.62    10.35     5.86
 -739.231   -736.287     1019.51      322.56       97.32        3.13       -5.49       -8.56    18.61    10.47     5.75
 -736.287   -733.343     1008.33      336.92      101.41       -8.05        8.87       -4.46    18.51    10.70     5.87
 -733.343   -730.399     1011.35      325.33      110.60       -5.03       -2.72        4.73    18.54    10.51     6.13
 -730.399   -727.455      993.47      316.09       91.87      -22.90      -11.97      -14.00    18.37    10.36     5.59
 -727.455   -724.511     1055.92      330.45      105.50       39.55        2.40       -0.37    18.94    10.60     5.99
 -724.511   -721.567      996.62      332.13      108.55      -19.76        4.08        2.68    18.40    10.62     6.07
 -721.567   -718.623      989.05      313.39      104.48      -27.33      -14.66       -1.40    18.33    10.32     5.96
 -718.623   -715.679      985.36      322.27      114.01      -31.02       -5.79        8.13    18.30    10.46     6.22
 -715.679   -712.735       -0.00       -0.00       -0.00         nan         nan         nan      nan      nan      nan
 -712.735   -709.791     1014.72      322.92      102.09       -1.66       -5.13       -3.79    18.57    10.47     5.89
 -709.791   -706.847     1035.65      347.12      101.06       19.28       19.07       -4.81    18.76    10.86     5.86
 -706.847   -703.903      998.03      328.75      120.82      -18.35        0.70       14.94    18.41    10.57     6.41
 -703.903   -700.959     1038.15      355.01      100.05       21.78       26.96       -5.82    18.78    10.98     5.83
 -700.959   -698.015     1009.31      329.09      111.62       -7.07        1.03        5.75    18.52    10.57     6.16
 -698.015   -695.071     1048.68      342.69      102.76       32.31       14.64       -3.11    18.87    10.79     5.91
 -695.071   -692.127     1001.12      346.13      110.26      -15.26       18.07        4.38    18.44    10.84     6.12
 -692.127   -689.183     1025.37      329.06      105.83        8.99        1.01       -0.05    18.66    10.57     6.00
 -689.183   -686.239     1014.68      322.56       97.66       -1.70       -5.49       -8.22    18.57    10.47     5.76
 -686.239   -683.295      994.91      342.02      102.42      -21.47       13.96       -3.45    18.38    10.78     5.90
 -683.295   -680.351     1013.35      301.11      110.26       -3.02      -26.95        4.38    18.55    10.11     6.12
 -680.351   -677.407       -0.00       -0.00       -0.00         nan         nan         nan      nan      nan      nan
 -677.407   -674.463     1038.12      325.69      118.78       21.74       -2.37       12.90    18.78    10.52     6.35
 -674.463   -671.519      994.23      335.55       98.35      -22.14        7.50       -7.53    18.38    10.68     5.78
 -671.519   -668.575     1003.47      325.67      107.19      -12.91       -2.39        1.32    18.46    10.52     6.03
 -668.575   -665.631     1028.81      323.28      101.75       12.43       -4.78       -4.12    18.69    10.48     5.88
 -665.631   -662.687     1048.97      317.12       96.64       32.59      -10.94       -9.24    18.88    10.38     5.73
 -662.687   -659.743     1016.50      338.27       99.70        0.13       10.22       -6.17    18.58    10.72     5.82
 -659.743   -656.799     1025.06      325.34      115.70        8.69       -2.72        9.83    18.66    10.51     6.27
 -656.799   -653.855     1030.82      321.55      104.47       14.44       -6.50       -1.41    18.71    10.45     5.96
 -653.855   -650.911      996.28      331.48      112.65      -20.09        3.42        6.77    18.40    10.61     6.19
 -650.911   -647.967     1009.92      321.55       98.00       -6.46       -6.50       -7.87    18.52    10.45     5.77
 -647.967   -645.023     1013.14      340.35      112.64       -3.24       12.30        6.77    18.55    10.75     6.19
 -645.023   -642.079     1003.46      328.39      109.23      -12.92        0.33        3.36    18.46    10.56     6.09
 -642.079   -639.135     1030.11      328.36      106.84       13.73        0.31        0.97    18.71    10.56     6.02
 -639.135   -636.191     1029.56      346.13       96.30       13.18       18.07       -9.57    18.70    10.84     5.72
 -636.191   -633.247     1042.10      314.06      110.94       25.73      -13.99        5.06    18.81    10.33     6.14
 -633.247   -630.303     1046.24      316.79      105.15       29.87      -11.27       -0.73    18.85    10.37     5.98
 -630.303   -627.359     1017.12      316.12      114.34        0.75      -11.94        8.47    18.59    10.36     6.23
 -627.359   -624.415     1003.77      331.10      104.46      -12.61        3.04       -1.41    18.46    10.61     5.96
 -624.415   -621.471     1021.98      322.25      108.22        5.60       -5.80        2.34    18.63    10.46     6.06
 -621.471   -618.527     1018.89      336.58      107.53        2.52        8.53        1.66    18.60    10.69     6.04
 -618.527   -615.583     1019.87      322.58      105.49        3.49       -5.47       -0.38    18.61    10.47     5.99
 -615.583   -612.639     1001.72      324.96      110.93      -14.66       -3.09        5.06    18.45    10.51     6.14
 -612.639   -609.695     1040.61      333.21      121.50       24.23        5.16       15.63    18.80    10.64     6.42
 -609.695   -606.751     1001.01      325.63      117.73      -15.37       -2.42       11.86    18.44    10.52     6.32
 -606.751   -603.807     1011.69      325.99      110.25       -4.68       -2.06        4.38    18.54    10.52     6.12
 -603.807   -600.863     1033.23      317.13      110.26       16.85      -10.92        4.38    18.73    10.38     6.12
 -600.863   -597.919     1001.02      318.15      101.75      -15.35       -9.90       -4.13    18.44    10.40     5.88
 -597.919   -594.975     1047.29      324.62      103.10       30.91       -3.43       -2.77    18.86    10.50     5.92
 -594.975   -592.031     1042.90      333.84      110.26       26.52        5.79        4.38    18.82    10.65     6.12
 -592.031   -589.087     1004.11      337.24      100.38      -12.27        9.19       -5.49    18.47    10.70     5.84
 -589.087   -586.143     1042.55      334.19      101.07       26.18        6.14       -4.80    18.82    10.65     5.86
 -586.143   -583.199     1028.08      313.02      104.46       11.70      -15.03       -1.41    18.69    10.31     5.96
 -583.199   -580.255     1009.24      322.24      101.40       -7.13       -5.81       -4.47    18.52    10.46     5.87
 -580.255   -577.311     1001.37      324.97      104.47      -15.01       -3.09       -1.41    18.44    10.51     5.96
 -577.311   -574.367     1004.54      328.07      110.27      -11.83        0.02        4.39    18.47    10.56     6.12
 -574.367   -571.423     1037.64      323.59      101.74       21.26       -4.47       -4.14    18.77    10.48     5.88
 -571.423   -568.479      999.97      310.32      108.90      -16.41      -17.74        3.03    18.43    10.27     6.08
 -568.479   -565.535     1026.63      309.94       96.63       10.26      -18.11       -9.24    18.67    10.26     5.73
 -565.535   -562.591      983.96      344.08      112.30      -32.41       16.03        6.42    18.28    10.81     6.18
 -562.591   -559.647      993.57      337.59      105.15      -22.80        9.54       -0.72    18.37    10.71     5.98
 -559.647   -556.703     1014.47      353.26      104.46       -1.90       25.21       -1.41    18.56    10.95     5.96
 -556.703   -553.759     1019.19      321.90       97.32        2.81       -6.15       -8.55    18.61    10.46     5.75
 -553.759   -550.815     1032.56      312.71      112.99       16.18      -15.34        7.11    18.73    10.31     6.20
 -550.815   -547.871      993.92      327.03       99.03      -22.46       -1.03       -6.84    18.37    10.54     5.80
 -547.871   -544.927      995.50      314.38      104.46      -20.88      -13.67       -1.41    18.39    10.33     5.96
 -544.927   -541.983     1008.64      338.63      114.34       -7.74       10.57        8.47    18.51    10.72     6.23
 -541.983   -539.039     1000.98      317.11      105.48      -15.40      -10.94       -0.39    18.44    10.38     5.99
 -539.039   -536.095     1020.84      319.85      107.53        4.46       -8.21        1.65    18.62    10.42     6.04
 -536.095   -533.151     1022.89      314.71       91.19        6.52      -13.34      -14.69    18.64    10.34     5.56
 -533.151   -530.207     1057.27      349.17      100.38       40.90       21.12       -5.50    18.95    10.89     5.84
 -530.207   -527.263     1075.70      331.44      102.08       59.32        3.39       -3.79    19.11    10.61     5.89
 -527.263   -524.319     1021.87      320.52       95.95        5.49       -7.54       -9.92    18.63    10.43     5.71
 -524.319   -521.375     1039.12      339.98      109.91       22.74       11.93        4.04    18.79    10.75     6.11
