16444.922 - KW trigger time, seconds UT.
16449.843 - corresponding geocenter time (corrected for light propagation from Wind spacecraft to the Earth).
15.892 keV	67.109 keV - energy interval of channel G1.
67.109 keV	276.634 keV - energy interval of channel G2.
276.634 keV	1095.085 keV - energy interval of channel G3.

t1	t2 - begin and end of time bin.
G1	G2	G3 - dead-time corrected count rate counts/s in G1, G2, G3.
G1bgsub	G2bgsub	G3bgsub - dead-time corrected and background substracted count rate counts/s in G1, G2, G3.
eG1	eG2	eG3 - their errors (1 sigma level).

       t1         t2          G1          G2          G3     G1bgsub     G2bgsub     G3bgsub      eG1      eG2      eG3
 -999.018   -996.074     1060.47      387.88      125.61       -7.45       -1.01       10.05    18.98    11.48     6.53
 -996.074   -993.130     1026.20      388.90      110.97      -41.73        0.01       -4.58    18.67    11.49     6.14
 -993.130   -990.186     1085.93      403.94      117.11       18.00       15.06        1.55    19.21    11.71     6.31
 -990.186   -987.242     1044.76      397.44      115.40      -23.17        8.56       -0.16    18.84    11.62     6.26
 -987.242   -984.298     1066.24      385.13      116.41       -1.69       -3.75        0.86    19.03    11.44     6.29
 -984.298   -981.354     1076.23      394.69      109.26        8.30        5.81       -6.29    19.12    11.58     6.09
 -981.354   -978.410     1054.06      381.77      118.47      -13.87       -7.11        2.92    18.92    11.39     6.34
 -978.410   -975.466     1046.43      390.62      118.80      -21.50        1.74        3.25    18.85    11.52     6.35
 -975.466   -972.522     1067.71      387.54      115.74       -0.22       -1.34        0.18    19.04    11.47     6.27
 -972.522   -969.578     1090.26      395.36      104.83       22.33        6.48      -10.72    19.24    11.59     5.97
 -969.578   -966.634     1063.93      389.24      110.63       -4.00        0.36       -4.92    19.01    11.50     6.13
 -966.634   -963.690     1091.09      413.50      119.83       23.16       24.62        4.27    19.25    11.85     6.38
 -963.690   -960.746     1050.49      371.49      117.44      -17.44      -17.39        1.89    18.89    11.23     6.32
 -960.746   -957.802     1074.52      390.60      120.50        6.59        1.72        4.95    19.11    11.52     6.40
 -957.802   -954.858     1066.59      386.50      107.56       -1.34       -2.38       -7.99    19.03    11.46     6.04
 -954.858   -951.914     1076.92      388.58      124.59        8.99       -0.31        9.04    19.13    11.49     6.50
 -951.914   -948.970     1076.88      377.27      110.62        8.96      -11.61       -4.94    19.13    11.32     6.13
 -948.970   -946.026       -0.00      381.70      106.87         nan       -7.18       -8.68      nan    11.39     6.03
 -946.026   -943.082     1052.24      378.33      124.25      -15.69      -10.55        8.70    18.91    11.34     6.50
 -943.082   -940.138     1068.55      361.57      123.55        0.62      -27.31        8.00    19.05    11.08     6.48
 -940.138   -937.194     1075.26      379.39      116.43        7.33       -9.49        0.88    19.11    11.35     6.29
 -937.194   -934.250     1066.04      409.38      113.01       -1.89       20.50       -2.54    19.03    11.79     6.20
 -934.250   -931.306     1073.55      400.85      120.50        5.62       11.97        4.95    19.10    11.67     6.40
 -931.306   -928.362     1083.80      398.11      113.01       15.88        9.23       -2.54    19.19    11.63     6.20
 -928.362   -925.418     1056.77      402.22      117.10      -11.16       13.34        1.55    18.95    11.69     6.31
 -925.418   -922.474     1067.40      395.75      117.79       -0.53        6.87        2.23    19.04    11.59     6.33
 -922.474   -919.530     1052.59      398.09      117.77      -15.34        9.21        2.22    18.91    11.63     6.33
 -919.530   -916.586     1053.58      401.84      123.55      -14.34       12.96        8.00    18.92    11.68     6.48
 -916.586   -913.642     1061.17      401.16      108.92       -6.76       12.28       -6.63    18.99    11.67     6.08
 -913.642   -910.698     1022.40      385.48      110.97      -45.53       -3.40       -4.59    18.64    11.44     6.14
 -910.698   -907.754     1073.17      405.96      114.71        5.25       17.08       -0.84    19.09    11.74     6.24
 -907.754   -904.810     1059.48      400.15      116.41       -8.45       11.27        0.86    18.97    11.66     6.29
 -904.810   -901.866     1088.86      385.12      113.00       20.93       -3.76       -2.55    19.23    11.44     6.20
 -901.866   -898.922     1039.59      394.36      115.05      -28.34        5.47       -0.50    18.79    11.57     6.25
 -898.922   -895.978     1049.79      372.15      115.39      -18.14      -16.73       -0.17    18.88    11.24     6.26
 -895.978   -893.034     1078.65      400.85      116.07       10.72       11.96        0.52    19.14    11.67     6.28
 -893.034   -890.090     1044.41      388.92      124.94      -23.52        0.04        9.38    18.84    11.49     6.51
 -890.090   -887.146     1065.30      385.15      110.29       -2.63       -3.73       -5.26    19.02    11.44     6.12
 -887.146   -884.202     1087.15      381.72      110.63       19.23       -7.17       -4.93    19.22    11.39     6.13
 -884.202   -881.258     1065.32      394.37      115.74       -2.61        5.49        0.18    19.02    11.57     6.27
 -881.258   -878.314     1095.89      391.00      126.31       27.96        2.11       10.75    19.29    11.52     6.55
 -878.314   -875.370     1079.33      386.51      117.10       11.41       -2.37        1.54    19.15    11.46     6.31
 -875.370   -872.426     1093.67      384.78      114.03       25.75       -4.10       -1.53    19.27    11.43     6.22
 -872.426   -869.482     1092.97      383.41      117.08       25.04       -5.48        1.53    19.27    11.41     6.31
 -869.482   -866.538     1093.49      409.05      128.68       25.56       20.17       13.12    19.27    11.79     6.61
 -866.538   -863.594     1042.26      378.99      111.99      -25.67       -9.89       -3.57    18.82    11.35     6.17
 -863.594   -860.650     1100.89      385.81      121.86       32.96       -3.07        6.30    19.34    11.45     6.43
 -860.650   -857.706     1028.54      389.90      117.77      -39.39        1.02        2.21    18.69    11.51     6.33
 -857.706   -854.762     1078.61      388.55      109.27       10.68       -0.34       -6.29    19.14    11.49     6.09
 -854.762   -851.818     1053.65      405.29      111.65      -14.28       16.40       -3.90    18.92    11.73     6.16
 -851.818   -848.874     1046.61      367.71      106.88      -21.32      -21.17       -8.68    18.86    11.18     6.03
 -848.874   -845.930     1060.13      398.11      112.67       -7.80        9.23       -2.88    18.98    11.63     6.19
 -845.930   -842.986     1037.53      386.17      115.73      -30.39       -2.72        0.18    18.77    11.45     6.27
 -842.986   -840.042     1108.00      366.34       99.04       40.07      -22.54      -16.51    19.40    11.15     5.80
 -840.042   -837.098     1058.74      397.43      120.16       -9.19        8.54        4.61    18.96    11.62     6.39
 -837.098   -834.154     1049.85      403.55      105.86      -18.07       14.67       -9.70    18.88    11.71     6.00
 -834.154   -831.210     1091.29      375.26      122.21       23.36      -13.63        6.65    19.25    11.29     6.44
 -831.210   -828.266     1064.92      402.18      114.02       -3.01       13.30       -1.53    19.02    11.69     6.22
 -828.266   -825.322     1042.33      399.14      124.93      -25.59       10.26        9.38    18.82    11.64     6.51
 -825.322   -822.378     1039.85      392.96      112.66      -28.07        4.08       -2.89    18.79    11.55     6.19
 -822.378   -819.434     1103.97      390.57      109.26       36.04        1.69       -6.30    19.36    11.52     6.09
 -819.434   -816.490     1087.96      396.11      125.62       20.04        7.22       10.06    19.22    11.60     6.53
 -816.490   -813.546     1068.61      387.51      116.07        0.68       -1.37        0.51    19.05    11.47     6.28
 -813.546   -810.602     1065.94      387.53      116.08       -1.99       -1.35        0.52    19.03    11.47     6.28
 -810.602   -807.658     1015.09      356.47      113.01      -52.84      -32.41       -2.55    18.57    11.00     6.20
 -807.658   -804.714     1066.25      378.99      112.33       -1.68       -9.90       -3.23    19.03    11.35     6.18
 -804.714   -801.770     1089.60      392.64      116.41       21.67        3.75        0.86    19.24    11.55     6.29
 -801.770   -798.826     1073.07      392.96      111.98        5.14        4.08       -3.57    19.09    11.55     6.17
 -798.826   -795.882     1046.38      382.40      119.13      -21.55       -6.48        3.58    18.85    11.40     6.36
 -795.882   -792.938     1053.95      405.60      102.45      -13.97       16.72      -13.11    18.92    11.74     5.90
 -792.938   -789.994     1036.84      387.22      113.02      -31.09       -1.66       -2.54    18.77    11.47     6.20
 -789.994   -787.050     1070.10      408.34      116.41        2.17       19.46        0.86    19.07    11.78     6.29
 -787.050   -784.106     1080.74      405.29      116.08       12.81       16.41        0.52    19.16    11.73     6.28
 -784.106   -781.162     1044.63      373.52      107.90      -23.30      -15.36       -7.65    18.84    11.26     6.05
 -781.162   -778.218     1098.89      390.27      119.14       30.96        1.39        3.59    19.32    11.51     6.36
 -778.218   -775.274     1050.83      394.00      114.36      -17.10        5.12       -1.19    18.89    11.57     6.23
 -775.274   -772.330     1017.20      376.61      127.64      -50.72      -12.28       12.09    18.59    11.31     6.58
 -772.330   -769.386     1040.25      382.43      125.27      -27.68       -6.45        9.72    18.80    11.40     6.52
 -769.386   -766.442     1078.33      390.94      123.22       10.40        2.06        7.67    19.14    11.52     6.47
 -766.442   -763.498     1086.82      382.05      109.60       18.89       -6.83       -5.95    19.21    11.39     6.10
 -763.498   -760.554     1058.46      402.21      121.52       -9.46       13.33        5.97    18.96    11.69     6.42
 -760.554   -757.610     1083.43      387.86      121.18       15.50       -1.02        5.62    19.18    11.48     6.42
 -757.610   -754.666     1094.36      372.86      124.92       26.44      -16.03        9.37    19.28    11.25     6.51
 -754.666   -751.722     1061.13      390.60      113.01       -6.79        1.72       -2.54    18.98    11.52     6.20
 -751.722   -748.778     1078.34      399.47      110.63       10.41       10.59       -4.92    19.14    11.65     6.13
 -748.778   -745.834     1071.51      389.24      121.18        3.58        0.36        5.63    19.08    11.50     6.42
 -745.834   -742.890     1064.16      378.97      115.73       -3.77       -9.91        0.17    19.01    11.35     6.27
 -742.890   -739.946     1069.70      384.46      112.67        1.78       -4.43       -2.88    19.06    11.43     6.19
 -739.946   -737.002     1050.56      392.31      114.38      -17.36        3.43       -1.18    18.89    11.54     6.23
 -737.002   -734.058     1097.44      375.59      122.89       29.51      -13.29        7.33    19.31    11.29     6.46
 -734.058   -731.114     1089.62      381.74      127.65       21.69       -7.14       12.10    19.24    11.39     6.58
 -731.114   -728.170     1089.29      393.36      114.72       21.36        4.47       -0.84    19.23    11.56     6.24
 -728.170   -725.226     1065.30      401.17      110.96       -2.63       12.29       -4.59    19.02    11.67     6.14
 -725.226   -722.282     1069.35      401.86      119.13        1.42       12.97        3.58    19.06    11.68     6.36
 -722.282   -719.338     1070.00      363.64      118.46        2.08      -25.24        2.91    19.06    11.11     6.34
 -719.338   -716.394     1108.80      384.48      122.55       40.88       -4.40        7.00    19.41    11.43     6.45
 -716.394   -713.450     1109.39      389.88      106.19       41.47        1.00       -9.37    19.41    11.51     6.01
 -713.450   -710.506     1077.97      387.18      115.05       10.04       -1.71       -0.51    19.14    11.47     6.25
 -710.506   -707.562     1073.44      397.40      111.30        5.51        8.52       -4.26    19.09    11.62     6.15
 -707.562   -704.618     1060.86      400.51      111.65       -7.07       11.63       -3.90    18.98    11.66     6.16
 -704.618   -701.674     1071.07      396.04      110.96        3.14        7.16       -4.59    19.07    11.60     6.14
 -701.674   -698.730     1079.46      412.48      126.64       11.53       23.60       11.08    19.15    11.84     6.56
 -698.730   -695.786     1057.81      400.17      129.35      -10.12       11.28       13.80    18.95    11.66     6.63
 -695.786   -692.842     1082.72      375.59      109.61       14.79      -13.29       -5.95    19.18    11.29     6.10
 -692.842   -689.898     1077.55      373.86      107.22        9.63      -15.02       -8.34    19.13    11.27     6.04
 -689.898   -686.954     1055.72      384.80      118.46      -12.21       -4.08        2.90    18.94    11.43     6.34
 -686.954   -684.010     1043.30      378.67      118.80      -24.63      -10.21        3.25    18.82    11.34     6.35
 -684.010   -681.066     1084.50      386.51      115.05       16.58       -2.37       -0.50    19.19    11.46     6.25
 -681.066   -678.122     1053.28      384.79      119.48      -14.65       -4.10        3.92    18.91    11.43     6.37
 -678.122   -675.178     1062.78      396.72      118.78       -5.15        7.83        3.23    19.00    11.61     6.35
 -675.178   -672.234     1056.10      385.87      125.28      -11.83       -3.01        9.73    18.94    11.45     6.52
 -672.234   -669.290     1081.31      370.12      115.06       13.38      -18.76       -0.50    19.16    11.21     6.25
 -669.290   -666.346     1059.82      402.87      115.73       -8.11       13.99        0.17    18.97    11.70     6.27
 -666.346   -663.402     1104.33      384.79      110.62       36.40       -4.09       -4.93    19.37    11.43     6.13
 -663.402   -660.458     1059.77      372.53      113.36       -8.16      -16.35       -2.20    18.97    11.25     6.21
 -660.458   -657.514     1050.14      392.30      107.56      -17.79        3.42       -8.00    18.89    11.54     6.04
 -657.514   -654.570     1057.37      377.97      112.33      -10.56      -10.91       -3.22    18.95    11.33     6.18
 -654.570   -651.626     1052.99      396.77      125.28      -14.94        7.89        9.72    18.91    11.61     6.52
 -651.626   -648.682     1070.15      405.32      129.02        2.22       16.44       13.47    19.07    11.73     6.62
 -648.682   -645.738     1067.92      366.00      102.79       -0.01      -22.88      -12.77    19.05    11.15     5.91
 -645.738   -642.794     1076.26      379.02      116.42        8.33       -9.86        0.87    19.12    11.35     6.29
 -642.794   -639.850     1091.95      378.99      111.65       24.02       -9.89       -3.91    19.26    11.35     6.16
 -639.850   -636.906     1071.83      396.07      114.72        3.90        7.18       -0.84    19.08    11.60     6.24
 -636.906   -633.962     1058.33      375.22      113.68       -9.60      -13.66       -1.87    18.96    11.29     6.21
 -633.962   -631.018     1071.81      394.02      116.76        3.89        5.14        1.21    19.08    11.57     6.30
 -631.018   -628.074     1086.44      382.73      109.60       18.51       -6.16       -5.96    19.21    11.40     6.10
 -628.074   -625.130     1100.67      418.60      113.35       32.74       29.72       -2.20    19.34    11.92     6.21
 -625.130   -622.186     1015.56      388.88      110.62      -52.36        0.00       -4.93    18.57    11.49     6.13
 -622.186   -619.242     1088.96      402.21      120.84       21.04       13.32        5.29    19.23    11.69     6.41
 -619.242   -616.298     1092.70      401.16      109.25       24.77       12.28       -6.30    19.27    11.67     6.09
 -616.298   -613.354     1080.34      401.14      106.53       12.41       12.26       -9.03    19.16    11.67     6.01
 -613.354   -610.410     1095.05      378.65      116.42       27.12      -10.23        0.86    19.29    11.34     6.29
 -610.410   -607.466     1084.04      378.63      106.53       16.11      -10.25       -9.02    19.19    11.34     6.02
 -607.466   -604.522     1111.83      375.23      111.99       43.90      -13.65       -3.57    19.43    11.29     6.17
 -604.522   -601.578     1106.68      384.78      111.30       38.76       -4.10       -4.25    19.39    11.43     6.15
 -601.578   -598.634     1091.71      393.35      112.68       23.78        4.46       -2.88    19.26    11.56     6.19
 -598.634   -595.690     1043.71      406.29      106.54      -24.22       17.41       -9.02    18.83    11.75     6.02
 -595.690   -592.746     1073.83      395.71      107.90        5.90        6.82       -7.66    19.10    11.59     6.05
 -592.746   -589.802     1067.74      401.53      121.86       -0.19       12.65        6.31    19.04    11.68     6.43
 -589.802   -586.858     1037.81      373.90      120.17      -30.11      -14.98        4.61    18.77    11.27     6.39
 -586.858   -583.914     1083.00      383.06      109.26       15.07       -5.82       -6.30    19.18    11.41     6.09
 -583.914   -580.970     1067.71      391.30      122.55       -0.22        2.41        6.99    19.04    11.53     6.45
 -580.970   -578.026     1074.15      387.86      113.01        6.23       -1.02       -2.55    19.10    11.48     6.20
 -578.026   -575.082     1069.74      408.33      116.07        1.82       19.45        0.51    19.06    11.78     6.28
 -575.082   -572.138     1084.45      384.80      120.50       16.52       -4.09        4.95    19.19    11.43     6.40
 -572.138   -569.194     1060.44      375.59      123.57       -7.49      -13.29        8.01    18.98    11.29     6.48
 -569.194   -566.250     1093.67      384.09      115.04       25.75       -4.80       -0.51    19.27    11.42     6.25
 -566.250   -563.306     1052.89      379.00      115.39      -15.03       -9.88       -0.16    18.91    11.35     6.26
 -563.306   -560.362     1058.32      378.96      112.66       -9.61       -9.92       -2.89    18.96    11.35     6.19
 -560.362   -557.418     1067.00      389.25      117.78       -0.93        0.37        2.23    19.04    11.50     6.33
 -557.418   -554.474     1059.44      390.94      123.56       -8.49        2.06        8.01    18.97    11.52     6.48
 -554.474   -551.530     1113.28      409.03      117.09       45.35       20.14        1.54    19.45    11.79     6.31
 -551.530   -548.586     1100.58      377.99      117.44       32.65      -10.89        1.89    19.34    11.33     6.32
 -548.586   -545.642     1057.03      381.73      112.67      -10.90       -7.16       -2.88    18.95    11.39     6.19
 -545.642   -542.698     1066.64      397.06      108.92       -1.29        8.18       -6.63    19.03    11.61     6.08
 -542.698   -539.754     1064.56      394.33       98.37       -3.37        5.45      -17.18    19.02    11.57     5.78
 -539.754   -536.810     1013.52      405.27      111.98      -54.41       16.39       -3.57    18.55    11.73     6.17
 -536.810   -533.866     1061.12      381.72      113.35       -6.81       -7.16       -2.20    18.98    11.39     6.21
 -533.866   -530.922     1026.82      386.48      109.94      -41.11       -2.41       -5.62    18.68    11.46     6.11
 -530.922   -527.978     1063.76      372.13       99.04       -4.17      -16.75      -16.51    19.01    11.24     5.80
